Packet_Number,Timestamp,Data
1,2026-02-27 04:53:30,[105852|0]
2,2026-02-27 04:53:30,[105863|0]
3,2026-02-27 04:53:30,[105862|0]
4,2026-02-27 04:53:30,[105865|0]
5,2026-02-27 04:53:30,[105876|0]
6,2026-02-27 04:53:30,[105904|0]
7,2026-02-27 04:53:30,[105913|0]
8,2026-02-27 04:53:30,[105921|0]
9,2026-02-27 04:53:30,[105926|0]
10,2026-02-27 04:53:30,[105952|0]
11,2026-02-27 04:53:30,[105968|0]
12,2026-02-27 04:53:30,[105977|0]
13,2026-02-27 04:53:30,[105890|0]
14,2026-02-27 04:53:30,[105765|0]
15,2026-02-27 04:53:30,[105685|0]
16,2026-02-27 04:53:30,[105725|0]
17,2026-02-27 04:53:30,[105748|0]
18,2026-02-27 04:53:30,[105748|0]
19,2026-02-27 04:53:30,[105763|0]
20,2026-02-27 04:53:30,[105747|0]
21,2026-02-27 04:53:30,[105712|0]
22,2026-02-27 04:53:30,[105724|0]
23,2026-02-27 04:53:30,[105737|0]
24,2026-02-27 04:53:31,[105754|0]
25,2026-02-27 04:53:31,[105772|0]
26,2026-02-27 04:53:31,[105786|0]
27,2026-02-27 04:53:31,[105779|0]
28,2026-02-27 04:53:31,[105799|0]
29,2026-02-27 04:53:31,[105809|0]
30,2026-02-27 04:53:31,[105820|0]
31,2026-02-27 04:53:31,[105825|0]
32,2026-02-27 04:53:31,[105826|0]
33,2026-02-27 04:53:31,[105843|0]
34,2026-02-27 04:53:31,[105871|0]
35,2026-02-27 04:53:31,[105876|0]
36,2026-02-27 04:53:31,[105891|0]
37,2026-02-27 04:53:31,[105909|0]
38,2026-02-27 04:53:31,[105813|0]
39,2026-02-27 04:53:31,[105650|0]
40,2026-02-27 04:53:31,[105592|0]
41,2026-02-27 04:53:31,[105592|0]
42,2026-02-27 04:53:31,[105605|0]
43,2026-02-27 04:53:31,[105591|0]
44,2026-02-27 04:53:31,[105580|0]
45,2026-02-27 04:53:31,[105585|0]
46,2026-02-27 04:53:31,[105575|0]
47,2026-02-27 04:53:31,[105574|0]
48,2026-02-27 04:53:31,[105567|0]
49,2026-02-27 04:53:32,[105580|0]
50,2026-02-27 04:53:32,[105580|0]
51,2026-02-27 04:53:32,[105609|0]
52,2026-02-27 04:53:32,[105627|0]
53,2026-02-27 04:53:32,[105627|0]
54,2026-02-27 04:53:32,[105637|0]
55,2026-02-27 04:53:32,[105653|0]
56,2026-02-27 04:53:32,[105652|0]
57,2026-02-27 04:53:32,[105670|0]
58,2026-02-27 04:53:32,[105687|0]
59,2026-02-27 04:53:32,[105709|0]
60,2026-02-27 04:53:32,[105733|0]
61,2026-02-27 04:53:32,[105728|0]
62,2026-02-27 04:53:32,[105740|0]
63,2026-02-27 04:53:32,[105766|0]
64,2026-02-27 04:53:32,[105672|0]
65,2026-02-27 04:53:32,[105518|0]
66,2026-02-27 04:53:32,[105435|0]
67,2026-02-27 04:53:32,[105427|0]
68,2026-02-27 04:53:32,[105426|0]
69,2026-02-27 04:53:32,[105426|0]
70,2026-02-27 04:53:32,[105418|0]
71,2026-02-27 04:53:32,[105438|0]
72,2026-02-27 04:53:32,[105420|0]
73,2026-02-27 04:53:32,[105420|0]
74,2026-02-27 04:53:33,[105421|0]
75,2026-02-27 04:53:33,[105410|0]
76,2026-02-27 04:53:33,[105424|0]
77,2026-02-27 04:53:33,[105448|0]
78,2026-02-27 04:53:33,[105468|0]
79,2026-02-27 04:53:33,[105492|0]
80,2026-02-27 04:53:33,[105513|0]
81,2026-02-27 04:53:33,[105504|0]
82,2026-02-27 04:53:33,[105518|0]
83,2026-02-27 04:53:33,[105537|0]
84,2026-02-27 04:53:33,[105560|0]
85,2026-02-27 04:53:33,[105586|0]
86,2026-02-27 04:53:33,[105607|0]
87,2026-02-27 04:53:33,[105614|0]
88,2026-02-27 04:53:33,[105637|0]
89,2026-02-27 04:53:33,[105654|0]
90,2026-02-27 04:53:33,[105674|0]
91,2026-02-27 04:53:33,[105657|0]
92,2026-02-27 04:53:33,[105509|0]
93,2026-02-27 04:53:33,[105369|0]
94,2026-02-27 04:53:33,[105344|0]
95,2026-02-27 04:53:33,[105356|0]
96,2026-02-27 04:53:33,[105375|0]
97,2026-02-27 04:53:33,[105376|0]
98,2026-02-27 04:53:33,[105382|0]
99,2026-02-27 04:53:33,[105354|0]
100,2026-02-27 04:53:34,[105361|0]
101,2026-02-27 04:53:34,[105358|0]
102,2026-02-27 04:53:34,[105364|0]
103,2026-02-27 04:53:34,[105395|0]
104,2026-02-27 04:53:34,[105416|0]
105,2026-02-27 04:53:34,[105418|0]
106,2026-02-27 04:53:34,[105449|0]
107,2026-02-27 04:53:34,[105458|0]
108,2026-02-27 04:53:34,[105469|0]
109,2026-02-27 04:53:34,[105502|0]
110,2026-02-27 04:53:34,[105509|0]
111,2026-02-27 04:53:34,[105531|0]
112,2026-02-27 04:53:34,[105552|0]
113,2026-02-27 04:53:34,[105572|0]
114,2026-02-27 04:53:34,[105598|0]
115,2026-02-27 04:53:34,[105623|0]
116,2026-02-27 04:53:34,[105631|0]
117,2026-02-27 04:53:34,[105515|0]
118,2026-02-27 04:53:34,[105362|0]
119,2026-02-27 04:53:34,[105282|0]
120,2026-02-27 04:53:34,[105289|0]
121,2026-02-27 04:53:34,[105313|0]
122,2026-02-27 04:53:34,[105306|0]
123,2026-02-27 04:53:34,[105279|0]
124,2026-02-27 04:53:35,[105310|0]
125,2026-02-27 04:53:35,[105299|0]
126,2026-02-27 04:53:35,[105289|0]
127,2026-02-27 04:53:35,[105298|0]
128,2026-02-27 04:53:35,[105316|0]
129,2026-02-27 04:53:35,[105323|0]
130,2026-02-27 04:53:35,[105353|0]
131,2026-02-27 04:53:35,[105382|0]
132,2026-02-27 04:53:35,[105401|0]
133,2026-02-27 04:53:35,[105419|0]
134,2026-02-27 04:53:35,[105420|0]
135,2026-02-27 04:53:35,[105421|0]
136,2026-02-27 04:53:35,[105457|0]
137,2026-02-27 04:53:35,[105486|0]
138,2026-02-27 04:53:35,[105517|0]
139,2026-02-27 04:53:35,[105537|0]
140,2026-02-27 04:53:35,[105544|0]
141,2026-02-27 04:53:35,[105556|0]
142,2026-02-27 04:53:35,[105584|0]
143,2026-02-27 04:53:35,[105535|0]
144,2026-02-27 04:53:35,[105364|0]
145,2026-02-27 04:53:35,[105239|0]
146,2026-02-27 04:53:35,[105205|0]
147,2026-02-27 04:53:35,[105205|0]
148,2026-02-27 04:53:35,[105222|0]
149,2026-02-27 04:53:36,[105212|0]
150,2026-02-27 04:53:36,[105220|0]
151,2026-02-27 04:53:36,[105207|0]
152,2026-02-27 04:53:36,[105188|0]
153,2026-02-27 04:53:36,[105187|0]
154,2026-02-27 04:53:36,[105208|0]
155,2026-02-27 04:53:36,[105238|0]
156,2026-02-27 04:53:36,[105250|0]
157,2026-02-27 04:53:36,[105274|0]
158,2026-02-27 04:53:36,[105281|0]
159,2026-02-27 04:53:36,[105284|0]
160,2026-02-27 04:53:36,[105314|0]
161,2026-02-27 04:53:36,[105324|0]
162,2026-02-27 04:53:36,[105351|0]
163,2026-02-27 04:53:36,[105372|0]
164,2026-02-27 04:53:36,[105383|0]
165,2026-02-27 04:53:36,[105412|0]
166,2026-02-27 04:53:36,[105451|0]
167,2026-02-27 04:53:36,[105467|0]
168,2026-02-27 04:53:36,[105475|0]
169,2026-02-27 04:53:36,[105505|0]
170,2026-02-27 04:53:36,[105447|0]
171,2026-02-27 04:53:36,[105276|0]
172,2026-02-27 04:53:36,[105151|0]
173,2026-02-27 04:53:37,[105106|0]
174,2026-02-27 04:53:37,[105134|0]
175,2026-02-27 04:53:37,[105130|0]
176,2026-02-27 04:53:37,[105124|0]
177,2026-02-27 04:53:37,[105142|0]
178,2026-02-27 04:53:37,[105134|0]
179,2026-02-27 04:53:37,[105119|0]
180,2026-02-27 04:53:37,[105114|0]
181,2026-02-27 04:53:37,[105123|0]
182,2026-02-27 04:53:37,[105136|0]
183,2026-02-27 04:53:37,[105173|0]
184,2026-02-27 04:53:37,[105201|0]
185,2026-02-27 04:53:37,[105219|0]
186,2026-02-27 04:53:37,[105237|0]
187,2026-02-27 04:53:37,[105237|0]
188,2026-02-27 04:53:37,[105252|0]
189,2026-02-27 04:53:37,[105248|0]
190,2026-02-27 04:53:37,[105279|0]
191,2026-02-27 04:53:37,[105308|0]
192,2026-02-27 04:53:37,[105325|0]
193,2026-02-27 04:53:37,[105347|0]
194,2026-02-27 04:53:37,[105387|0]
195,2026-02-27 04:53:37,[105387|0]
196,2026-02-27 04:53:37,[105399|0]
197,2026-02-27 04:53:37,[105312|0]
198,2026-02-27 04:53:37,[105139|0]
199,2026-02-27 04:53:38,[105035|0]
200,2026-02-27 04:53:38,[105033|0]
201,2026-02-27 04:53:38,[105029|0]
202,2026-02-27 04:53:38,[105046|0]
203,2026-02-27 04:53:38,[105057|0]
204,2026-02-27 04:53:38,[105069|0]
205,2026-02-27 04:53:38,[105052|0]
206,2026-02-27 04:53:38,[105048|0]
207,2026-02-27 04:53:38,[105030|0]
208,2026-02-27 04:53:38,[105074|0]
209,2026-02-27 04:53:38,[105108|0]
210,2026-02-27 04:53:38,[105124|0]
211,2026-02-27 04:53:38,[105158|0]
212,2026-02-27 04:53:38,[105171|0]
213,2026-02-27 04:53:38,[105171|0]
214,2026-02-27 04:53:38,[105197|0]
215,2026-02-27 04:53:38,[105221|0]
216,2026-02-27 04:53:38,[105229|0]
217,2026-02-27 04:53:38,[105254|0]
218,2026-02-27 04:53:38,[105286|0]
219,2026-02-27 04:53:38,[105285|0]
220,2026-02-27 04:53:38,[105314|0]
221,2026-02-27 04:53:38,[105340|0]
222,2026-02-27 04:53:38,[105340|0]
223,2026-02-27 04:53:38,[105304|0]
224,2026-02-27 04:53:39,[105104|0]
225,2026-02-27 04:53:39,[104966|0]
226,2026-02-27 04:53:39,[104935|0]
227,2026-02-27 04:53:39,[104947|0]
228,2026-02-27 04:53:39,[104945|0]
229,2026-02-27 04:53:39,[104931|0]
230,2026-02-27 04:53:39,[104947|0]
231,2026-02-27 04:53:39,[104920|0]
232,2026-02-27 04:53:39,[104921|0]
233,2026-02-27 04:53:39,[104923|0]
234,2026-02-27 04:53:39,[104935|0]
235,2026-02-27 04:53:39,[104959|0]
236,2026-02-27 04:53:39,[104987|0]
237,2026-02-27 04:53:39,[104985|0]
238,2026-02-27 04:53:39,[105020|0]
239,2026-02-27 04:53:39,[105039|0]
240,2026-02-27 04:53:39,[105054|0]
241,2026-02-27 04:53:39,[105080|0]
242,2026-02-27 04:53:39,[105097|0]
243,2026-02-27 04:53:39,[105097|0]
244,2026-02-27 04:53:39,[105139|0]
245,2026-02-27 04:53:39,[105165|0]
246,2026-02-27 04:53:39,[105194|0]
247,2026-02-27 04:53:39,[105209|0]
248,2026-02-27 04:53:39,[105223|0]
249,2026-02-27 04:53:39,[105222|0]
250,2026-02-27 04:53:40,[105259|0]
251,2026-02-27 04:53:40,[105225|0]
252,2026-02-27 04:53:40,[105050|0]
253,2026-02-27 04:53:40,[104893|0]
254,2026-02-27 04:53:40,[104843|0]
255,2026-02-27 04:53:40,[104840|0]
256,2026-02-27 04:53:40,[104854|0]
257,2026-02-27 04:53:40,[104860|0]
258,2026-02-27 04:53:40,[104857|0]
259,2026-02-27 04:53:40,[104854|0]
260,2026-02-27 04:53:40,[104828|0]
261,2026-02-27 04:53:40,[104832|0]
262,2026-02-27 04:53:40,[104855|0]
263,2026-02-27 04:53:40,[104887|0]
264,2026-02-27 04:53:40,[104908|0]
265,2026-02-27 04:53:40,[104936|0]
266,2026-02-27 04:53:40,[104934|0]
267,2026-02-27 04:53:40,[104951|0]
268,2026-02-27 04:53:40,[104971|0]
269,2026-02-27 04:53:40,[104983|0]
270,2026-02-27 04:53:40,[105005|0]
271,2026-02-27 04:53:40,[105032|0]
272,2026-02-27 04:53:40,[105053|0]
273,2026-02-27 04:53:40,[105069|0]
274,2026-02-27 04:53:41,[105106|0]
275,2026-02-27 04:53:41,[105130|0]
276,2026-02-27 04:53:41,[105151|0]
277,2026-02-27 04:53:41,[105155|0]
278,2026-02-27 04:53:41,[105061|0]
279,2026-02-27 04:53:41,[104880|0]
280,2026-02-27 04:53:41,[104771|0]
281,2026-02-27 04:53:41,[104732|0]
282,2026-02-27 04:53:41,[104747|0]
283,2026-02-27 04:53:41,[104735|0]
284,2026-02-27 04:53:41,[104737|0]
285,2026-02-27 04:53:41,[104751|0]
286,2026-02-27 04:53:41,[104731|0]
287,2026-02-27 04:53:41,[104730|0]
288,2026-02-27 04:53:41,[104730|0]
289,2026-02-27 04:53:41,[104751|0]
290,2026-02-27 04:53:41,[104769|0]
291,2026-02-27 04:53:41,[104798|0]
292,2026-02-27 04:53:41,[104838|0]
293,2026-02-27 04:53:41,[104847|0]
294,2026-02-27 04:53:41,[104857|0]
295,2026-02-27 04:53:41,[104877|0]
296,2026-02-27 04:53:41,[104878|0]
297,2026-02-27 04:53:41,[104902|0]
298,2026-02-27 04:53:41,[104926|0]
299,2026-02-27 04:53:42,[104956|0]
300,2026-02-27 04:53:42,[104983|0]
301,2026-02-27 04:53:42,[104983|0]
302,2026-02-27 04:53:42,[105010|0]
303,2026-02-27 04:53:42,[105019|0]
304,2026-02-27 04:53:42,[105037|0]
305,2026-02-27 04:53:42,[105060|0]
306,2026-02-27 04:53:42,[105037|0]
307,2026-02-27 04:53:42,[104867|0]
308,2026-02-27 04:53:42,[104710|0]
309,2026-02-27 04:53:42,[104616|0]
310,2026-02-27 04:53:42,[104608|0]
311,2026-02-27 04:53:42,[104621|0]
312,2026-02-27 04:53:42,[104603|0]
313,2026-02-27 04:53:42,[104618|0]
314,2026-02-27 04:53:42,[104609|0]
315,2026-02-27 04:53:42,[104593|0]
316,2026-02-27 04:53:42,[104597|0]
317,2026-02-27 04:53:42,[104611|0]
318,2026-02-27 04:53:42,[104639|0]
319,2026-02-27 04:53:42,[104672|0]
320,2026-02-27 04:53:42,[104694|0]
321,2026-02-27 04:53:42,[104692|0]
322,2026-02-27 04:53:42,[104724|0]
323,2026-02-27 04:53:42,[104739|0]
324,2026-02-27 04:53:42,[104764|0]
325,2026-02-27 04:53:43,[104787|0]
326,2026-02-27 04:53:43,[104807|0]
327,2026-02-27 04:53:43,[104817|0]
328,2026-02-27 04:53:43,[104849|0]
329,2026-02-27 04:53:43,[104875|0]
330,2026-02-27 04:53:43,[104905|0]
331,2026-02-27 04:53:43,[104931|0]
332,2026-02-27 04:53:43,[104944|0]
333,2026-02-27 04:53:43,[104961|0]
334,2026-02-27 04:53:43,[104954|0]
335,2026-02-27 04:53:43,[104804|0]
336,2026-02-27 04:53:43,[104629|0]
337,2026-02-27 04:53:43,[104547|0]
338,2026-02-27 04:53:43,[104535|0]
339,2026-02-27 04:53:43,[104538|0]
340,2026-02-27 04:53:43,[104532|0]
341,2026-02-27 04:53:43,[104542|0]
342,2026-02-27 04:53:43,[104558|0]
343,2026-02-27 04:53:43,[104547|0]
344,2026-02-27 04:53:43,[104544|0]
345,2026-02-27 04:53:43,[104549|0]
346,2026-02-27 04:53:43,[104579|0]
347,2026-02-27 04:53:43,[104616|0]
348,2026-02-27 04:53:43,[104648|0]
349,2026-02-27 04:53:44,[104667|0]
350,2026-02-27 04:53:44,[104679|0]
351,2026-02-27 04:53:44,[104680|0]
352,2026-02-27 04:53:44,[104715|0]
353,2026-02-27 04:53:44,[104746|0]
354,2026-02-27 04:53:44,[104776|0]
355,2026-02-27 04:53:44,[104811|0]
356,2026-02-27 04:53:44,[104842|0]
357,2026-02-27 04:53:44,[104843|0]
358,2026-02-27 04:53:44,[104888|0]
359,2026-02-27 04:53:44,[104920|0]
360,2026-02-27 04:53:44,[104938|0]
361,2026-02-27 04:53:44,[104854|0]
362,2026-02-27 04:53:44,[104657|0]
363,2026-02-27 04:53:44,[104536|0]
364,2026-02-27 04:53:44,[104526|0]
365,2026-02-27 04:53:44,[104563|0]
366,2026-02-27 04:53:44,[104576|0]
367,2026-02-27 04:53:44,[104580|0]
368,2026-02-27 04:53:44,[104597|0]
369,2026-02-27 04:53:44,[104574|0]
370,2026-02-27 04:53:44,[104572|0]
371,2026-02-27 04:53:44,[104598|0]
372,2026-02-27 04:53:44,[104624|0]
373,2026-02-27 04:53:44,[104654|0]
374,2026-02-27 04:53:45,[104673|0]
375,2026-02-27 04:53:45,[104701|0]
376,2026-02-27 04:53:45,[104736|0]
377,2026-02-27 04:53:45,[104749|0]
378,2026-02-27 04:53:45,[104772|0]
379,2026-02-27 04:53:45,[104794|0]
380,2026-02-27 04:53:45,[104815|0]
381,2026-02-27 04:53:45,[104842|0]
382,2026-02-27 04:53:45,[104875|0]
383,2026-02-27 04:53:45,[104909|0]
384,2026-02-27 04:53:45,[104918|0]
385,2026-02-27 04:53:45,[104956|0]
386,2026-02-27 04:53:45,[104969|0]
387,2026-02-27 04:53:45,[104833|0]
388,2026-02-27 04:53:45,[104642|0]
389,2026-02-27 04:53:45,[104523|0]
390,2026-02-27 04:53:45,[104508|0]
391,2026-02-27 04:53:45,[104500|0]
392,2026-02-27 04:53:45,[104487|0]
393,2026-02-27 04:53:45,[104497|0]
394,2026-02-27 04:53:45,[104507|0]
395,2026-02-27 04:53:45,[104499|0]
396,2026-02-27 04:53:45,[104492|0]
397,2026-02-27 04:53:45,[104501|0]
398,2026-02-27 04:53:45,[104508|0]
399,2026-02-27 04:53:45,[104544|0]
400,2026-02-27 04:53:46,[104578|0]
401,2026-02-27 04:53:46,[104597|0]
402,2026-02-27 04:53:46,[104621|0]
403,2026-02-27 04:53:46,[104641|0]
404,2026-02-27 04:53:46,[104643|0]
405,2026-02-27 04:53:46,[104675|0]
406,2026-02-27 04:53:46,[104704|0]
407,2026-02-27 04:53:46,[104733|0]
408,2026-02-27 04:53:46,[104761|0]
409,2026-02-27 04:53:46,[104787|0]
410,2026-02-27 04:53:46,[104806|0]
411,2026-02-27 04:53:46,[104837|0]
412,2026-02-27 04:53:46,[104867|0]
413,2026-02-27 04:53:46,[104771|0]
414,2026-02-27 04:53:46,[104584|0]
415,2026-02-27 04:53:46,[104584|0]
416,2026-02-27 04:53:46,[104447|0]
417,2026-02-27 04:53:46,[104413|0]
418,2026-02-27 04:53:46,[104428|0]
419,2026-02-27 04:53:46,[104425|0]
420,2026-02-27 04:53:46,[104438|0]
421,2026-02-27 04:53:46,[104450|0]
422,2026-02-27 04:53:46,[104447|0]
423,2026-02-27 04:53:46,[104422|0]
424,2026-02-27 04:53:47,[104434|0]
425,2026-02-27 04:53:47,[104459|0]
426,2026-02-27 04:53:47,[104498|0]
427,2026-02-27 04:53:47,[104524|0]
428,2026-02-27 04:53:47,[104556|0]
429,2026-02-27 04:53:47,[104561|0]
430,2026-02-27 04:53:47,[104589|0]
431,2026-02-27 04:53:47,[104611|0]
432,2026-02-27 04:53:47,[104629|0]
433,2026-02-27 04:53:47,[104660|0]
434,2026-02-27 04:53:47,[104688|0]
435,2026-02-27 04:53:47,[104691|0]
436,2026-02-27 04:53:47,[104736|0]
437,2026-02-27 04:53:47,[104774|0]
438,2026-02-27 04:53:47,[104799|0]
439,2026-02-27 04:53:47,[104688|0]
440,2026-02-27 04:53:47,[104500|0]
441,2026-02-27 04:53:47,[104352|0]
442,2026-02-27 04:53:47,[104343|0]
443,2026-02-27 04:53:47,[104357|0]
444,2026-02-27 04:53:47,[104355|0]
445,2026-02-27 04:53:47,[104367|0]
446,2026-02-27 04:53:47,[104376|0]
447,2026-02-27 04:53:47,[104346|0]
448,2026-02-27 04:53:47,[104353|0]
449,2026-02-27 04:53:48,[104365|0]
450,2026-02-27 04:53:48,[104406|0]
451,2026-02-27 04:53:48,[104431|0]
452,2026-02-27 04:53:48,[104451|0]
453,2026-02-27 04:53:48,[104477|0]
454,2026-02-27 04:53:48,[104505|0]
455,2026-02-27 04:53:48,[104526|0]
456,2026-02-27 04:53:48,[104556|0]
457,2026-02-27 04:53:48,[104575|0]
458,2026-02-27 04:53:48,[104598|0]
459,2026-02-27 04:53:48,[104624|0]
460,2026-02-27 04:53:48,[104664|0]
461,2026-02-27 04:53:48,[104699|0]
462,2026-02-27 04:53:48,[104738|0]
463,2026-02-27 04:53:48,[104758|0]
464,2026-02-27 04:53:48,[104785|0]
465,2026-02-27 04:53:48,[104732|0]
466,2026-02-27 04:53:48,[104551|0]
467,2026-02-27 04:53:48,[104396|0]
468,2026-02-27 04:53:48,[104330|0]
469,2026-02-27 04:53:48,[104318|0]
470,2026-02-27 04:53:48,[104327|0]
471,2026-02-27 04:53:48,[104299|0]
472,2026-02-27 04:53:48,[104341|0]
473,2026-02-27 04:53:49,[104346|0]
474,2026-02-27 04:53:49,[104322|0]
475,2026-02-27 04:53:49,[104323|0]
476,2026-02-27 04:53:49,[104334|0]
477,2026-02-27 04:53:49,[104351|0]
478,2026-02-27 04:53:49,[104405|0]
479,2026-02-27 04:53:49,[104445|0]
480,2026-02-27 04:53:49,[104462|0]
481,2026-02-27 04:53:49,[104467|0]
482,2026-02-27 04:53:49,[104488|0]
483,2026-02-27 04:53:49,[104482|0]
484,2026-02-27 04:53:49,[104505|0]
485,2026-02-27 04:53:49,[104537|0]
486,2026-02-27 04:53:49,[104565|0]
487,2026-02-27 04:53:49,[104582|0]
488,2026-02-27 04:53:49,[104607|0]
489,2026-02-27 04:53:49,[104620|0]
490,2026-02-27 04:53:49,[104538|0]
491,2026-02-27 04:53:49,[104352|0]
492,2026-02-27 04:53:49,[104223|0]
493,2026-02-27 04:53:49,[104187|0]
494,2026-02-27 04:53:49,[104184|0]
495,2026-02-27 04:53:49,[104193|0]
496,2026-02-27 04:53:49,[104217|0]
497,2026-02-27 04:53:49,[104239|0]
498,2026-02-27 04:53:49,[104242|0]
499,2026-02-27 04:53:50,[104239|0]
500,2026-02-27 04:53:50,[104246|0]
501,2026-02-27 04:53:50,[104271|0]
502,2026-02-27 04:53:50,[104328|0]
503,2026-02-27 04:53:50,[104355|0]
504,2026-02-27 04:53:50,[104395|0]
505,2026-02-27 04:53:50,[104408|0]
506,2026-02-27 04:53:50,[104426|0]
507,2026-02-27 04:53:50,[104446|0]
508,2026-02-27 04:53:50,[104490|0]
509,2026-02-27 04:53:50,[104523|0]
510,2026-02-27 04:53:50,[104540|0]
511,2026-02-27 04:53:50,[104575|0]
512,2026-02-27 04:53:50,[104595|0]
513,2026-02-27 04:53:50,[104622|0]
514,2026-02-27 04:53:50,[104662|0]
515,2026-02-27 04:53:50,[104603|0]
516,2026-02-27 04:53:50,[104400|0]
517,2026-02-27 04:53:50,[104240|0]
518,2026-02-27 04:53:50,[104164|0]
519,2026-02-27 04:53:50,[104186|0]
520,2026-02-27 04:53:50,[104183|0]
521,2026-02-27 04:53:50,[104190|0]
522,2026-02-27 04:53:50,[104212|0]
523,2026-02-27 04:53:50,[104212|0]
524,2026-02-27 04:53:51,[104191|0]
525,2026-02-27 04:53:51,[104202|0]
526,2026-02-27 04:53:51,[104222|0]
527,2026-02-27 04:53:51,[104266|0]
528,2026-02-27 04:53:51,[104301|0]
529,2026-02-27 04:53:51,[104301|0]
530,2026-02-27 04:53:51,[104337|0]
531,2026-02-27 04:53:51,[104351|0]
532,2026-02-27 04:53:51,[104387|0]
533,2026-02-27 04:53:51,[104411|0]
534,2026-02-27 04:53:51,[104439|0]
535,2026-02-27 04:53:51,[104487|0]
536,2026-02-27 04:53:51,[104521|0]
537,2026-02-27 04:53:51,[104544|0]
538,2026-02-27 04:53:51,[104584|0]
539,2026-02-27 04:53:51,[104624|0]
540,2026-02-27 04:53:51,[104650|0]
541,2026-02-27 04:53:51,[104679|0]
542,2026-02-27 04:53:51,[104713|0]
543,2026-02-27 04:53:51,[104714|0]
544,2026-02-27 04:53:51,[104594|0]
545,2026-02-27 04:53:51,[104371|0]
546,2026-02-27 04:53:51,[104253|0]
547,2026-02-27 04:53:51,[104238|0]
548,2026-02-27 04:53:51,[104255|0]
549,2026-02-27 04:53:51,[104235|0]
550,2026-02-27 04:53:52,[104260|0]
551,2026-02-27 04:53:52,[104266|0]
552,2026-02-27 04:53:52,[104260|0]
553,2026-02-27 04:53:52,[104252|0]
554,2026-02-27 04:53:52,[104264|0]
555,2026-02-27 04:53:52,[104282|0]
556,2026-02-27 04:53:52,[104335|0]
557,2026-02-27 04:53:52,[104373|0]
558,2026-02-27 04:53:52,[104402|0]
559,2026-02-27 04:53:52,[104426|0]
560,2026-02-27 04:53:52,[104448|0]
561,2026-02-27 04:53:52,[104441|0]
562,2026-02-27 04:53:52,[104489|0]
563,2026-02-27 04:53:52,[104512|0]
564,2026-02-27 04:53:52,[104570|0]
565,2026-02-27 04:53:52,[104579|0]
566,2026-02-27 04:53:52,[104611|0]
567,2026-02-27 04:53:52,[104632|0]
568,2026-02-27 04:53:52,[104668|0]
569,2026-02-27 04:53:52,[104701|0]
570,2026-02-27 04:53:52,[104619|0]
571,2026-02-27 04:53:52,[104413|0]
572,2026-02-27 04:53:52,[104269|0]
573,2026-02-27 04:53:52,[104200|0]
574,2026-02-27 04:53:53,[104233|0]
575,2026-02-27 04:53:53,[104247|0]
576,2026-02-27 04:53:53,[104262|0]
577,2026-02-27 04:53:53,[104277|0]
578,2026-02-27 04:53:53,[104271|0]
579,2026-02-27 04:53:53,[104247|0]
580,2026-02-27 04:53:53,[104265|0]
581,2026-02-27 04:53:53,[104294|0]
582,2026-02-27 04:53:53,[104331|0]
583,2026-02-27 04:53:53,[104375|0]
584,2026-02-27 04:53:53,[104397|0]
585,2026-02-27 04:53:53,[104414|0]
586,2026-02-27 04:53:53,[104453|0]
587,2026-02-27 04:53:53,[104464|0]
588,2026-02-27 04:53:53,[104506|0]
589,2026-02-27 04:53:53,[104526|0]
590,2026-02-27 04:53:53,[104556|0]
591,2026-02-27 04:53:53,[104570|0]
592,2026-02-27 04:53:53,[104638|0]
593,2026-02-27 04:53:53,[104656|0]
594,2026-02-27 04:53:53,[104682|0]
595,2026-02-27 04:53:53,[104721|0]
596,2026-02-27 04:53:53,[104736|0]
597,2026-02-27 04:53:53,[104588|0]
598,2026-02-27 04:53:53,[104388|0]
599,2026-02-27 04:53:54,[104258|0]
600,2026-02-27 04:53:54,[104230|0]
601,2026-02-27 04:53:54,[104241|0]
602,2026-02-27 04:53:54,[104241|0]
603,2026-02-27 04:53:54,[104243|0]
604,2026-02-27 04:53:54,[104267|0]
605,2026-02-27 04:53:54,[104267|0]
606,2026-02-27 04:53:54,[104252|0]
607,2026-02-27 04:53:54,[104270|0]
608,2026-02-27 04:53:54,[104290|0]
609,2026-02-27 04:53:54,[104310|0]
610,2026-02-27 04:53:54,[104357|0]
611,2026-02-27 04:53:54,[104400|0]
612,2026-02-27 04:53:54,[104425|0]
613,2026-02-27 04:53:54,[104449|0]
614,2026-02-27 04:53:54,[104465|0]
615,2026-02-27 04:53:54,[104475|0]
616,2026-02-27 04:53:54,[104518|0]
617,2026-02-27 04:53:54,[104545|0]
618,2026-02-27 04:53:54,[104571|0]
619,2026-02-27 04:53:54,[104603|0]
620,2026-02-27 04:53:54,[104650|0]
621,2026-02-27 04:53:54,[104658|0]
622,2026-02-27 04:53:54,[104698|0]
623,2026-02-27 04:53:54,[104721|0]
624,2026-02-27 04:53:54,[104587|0]
625,2026-02-27 04:53:55,[104372|0]
626,2026-02-27 04:53:55,[104244|0]
627,2026-02-27 04:53:55,[104219|0]
628,2026-02-27 04:53:55,[104245|0]
629,2026-02-27 04:53:55,[104271|0]
630,2026-02-27 04:53:55,[104283|0]
631,2026-02-27 04:53:55,[104292|0]
632,2026-02-27 04:53:55,[104271|0]
633,2026-02-27 04:53:55,[104260|0]
634,2026-02-27 04:53:55,[104283|0]
635,2026-02-27 04:53:55,[104306|0]
636,2026-02-27 04:53:55,[104336|0]
637,2026-02-27 04:53:55,[104369|0]
638,2026-02-27 04:53:55,[104404|0]
639,2026-02-27 04:53:55,[104424|0]
640,2026-02-27 04:53:55,[104450|0]
641,2026-02-27 04:53:55,[104473|0]
642,2026-02-27 04:53:55,[104473|0]
643,2026-02-27 04:53:55,[104489|0]
644,2026-02-27 04:53:55,[104518|0]
645,2026-02-27 04:53:55,[104537|0]
646,2026-02-27 04:53:55,[104565|0]
647,2026-02-27 04:53:55,[104599|0]
648,2026-02-27 04:53:55,[104626|0]
649,2026-02-27 04:53:56,[104671|0]
650,2026-02-27 04:53:56,[104535|0]
651,2026-02-27 04:53:56,[104311|0]
652,2026-02-27 04:53:56,[104190|0]
653,2026-02-27 04:53:56,[104158|0]
654,2026-02-27 04:53:56,[104183|0]
655,2026-02-27 04:53:56,[104208|0]
656,2026-02-27 04:53:56,[104225|0]
657,2026-02-27 04:53:56,[104224|0]
658,2026-02-27 04:53:56,[104212|0]
659,2026-02-27 04:53:56,[104210|0]
660,2026-02-27 04:53:56,[104214|0]
661,2026-02-27 04:53:56,[104241|0]
662,2026-02-27 04:53:56,[104279|0]
663,2026-02-27 04:53:56,[104293|0]
664,2026-02-27 04:53:56,[104343|0]
665,2026-02-27 04:53:56,[104360|0]
666,2026-02-27 04:53:56,[104383|0]
667,2026-02-27 04:53:56,[104408|0]
668,2026-02-27 04:53:56,[104418|0]
669,2026-02-27 04:53:56,[104424|0]
670,2026-02-27 04:53:56,[104474|0]
671,2026-02-27 04:53:56,[104504|0]
672,2026-02-27 04:53:56,[104533|0]
673,2026-02-27 04:53:56,[104568|0]
674,2026-02-27 04:53:57,[104584|0]
675,2026-02-27 04:53:57,[104469|0]
676,2026-02-27 04:53:57,[104282|0]
677,2026-02-27 04:53:57,[104128|0]
678,2026-02-27 04:53:57,[104060|0]
679,2026-02-27 04:53:57,[104075|0]
680,2026-02-27 04:53:57,[104083|0]
681,2026-02-27 04:53:57,[104066|0]
682,2026-02-27 04:53:57,[104097|0]
683,2026-02-27 04:53:57,[104088|0]
684,2026-02-27 04:53:57,[104077|0]
685,2026-02-27 04:53:57,[104089|0]
686,2026-02-27 04:53:57,[104102|0]
687,2026-02-27 04:53:57,[104109|0]
688,2026-02-27 04:53:57,[104175|0]
689,2026-02-27 04:53:57,[104201|0]
690,2026-02-27 04:53:57,[104235|0]
691,2026-02-27 04:53:57,[104250|0]
692,2026-02-27 04:53:57,[104277|0]
693,2026-02-27 04:53:57,[104267|0]
694,2026-02-27 04:53:57,[104322|0]
695,2026-02-27 04:53:57,[104357|0]
696,2026-02-27 04:53:57,[104385|0]
697,2026-02-27 04:53:57,[104419|0]
698,2026-02-27 04:53:57,[104452|0]
699,2026-02-27 04:53:57,[104467|0]
700,2026-02-27 04:53:58,[104451|0]
701,2026-02-27 04:53:58,[104251|0]
702,2026-02-27 04:53:58,[104078|0]
703,2026-02-27 04:53:58,[104008|0]
704,2026-02-27 04:53:58,[104000|0]
705,2026-02-27 04:53:58,[104032|0]
706,2026-02-27 04:53:58,[104061|0]
707,2026-02-27 04:53:58,[104059|0]
708,2026-02-27 04:53:58,[104064|0]
709,2026-02-27 04:53:58,[104048|0]
710,2026-02-27 04:53:58,[104035|0]
711,2026-02-27 04:53:58,[104050|0]
712,2026-02-27 04:53:58,[104099|0]
713,2026-02-27 04:53:58,[104131|0]
714,2026-02-27 04:53:58,[104163|0]
715,2026-02-27 04:53:58,[104188|0]
716,2026-02-27 04:53:58,[104206|0]
717,2026-02-27 04:53:58,[104222|0]
718,2026-02-27 04:53:58,[104255|0]
719,2026-02-27 04:53:58,[104283|0]
720,2026-02-27 04:53:58,[104312|0]
721,2026-02-27 04:53:58,[104354|0]
722,2026-02-27 04:53:58,[104367|0]
723,2026-02-27 04:53:59,[104391|0]
724,2026-02-27 04:53:59,[104394|0]
725,2026-02-27 04:53:59,[104200|0]
726,2026-02-27 04:53:59,[104014|0]
727,2026-02-27 04:53:59,[103932|0]
728,2026-02-27 04:53:59,[103931|0]
729,2026-02-27 04:53:59,[103912|0]
730,2026-02-27 04:53:59,[103906|0]
731,2026-02-27 04:53:59,[103917|0]
732,2026-02-27 04:53:59,[103913|0]
733,2026-02-27 04:53:59,[103902|0]
734,2026-02-27 04:53:59,[103906|0]
735,2026-02-27 04:53:59,[103905|0]
736,2026-02-27 04:53:59,[103947|0]
737,2026-02-27 04:53:59,[103993|0]
738,2026-02-27 04:53:59,[104028|0]
739,2026-02-27 04:53:59,[104068|0]
740,2026-02-27 04:53:59,[104077|0]
741,2026-02-27 04:53:59,[104103|0]
742,2026-02-27 04:53:59,[104138|0]
743,2026-02-27 04:53:59,[104163|0]
744,2026-02-27 04:53:59,[104210|0]
745,2026-02-27 04:53:59,[104236|0]
746,2026-02-27 04:53:59,[104264|0]
747,2026-02-27 04:53:59,[104294|0]
748,2026-02-27 04:53:59,[104343|0]
749,2026-02-27 04:54:00,[104328|0]
750,2026-02-27 04:54:00,[104150|0]
751,2026-02-27 04:54:00,[103949|0]
752,2026-02-27 04:54:00,[103845|0]
753,2026-02-27 04:54:00,[103843|0]
754,2026-02-27 04:54:00,[103862|0]
755,2026-02-27 04:54:00,[103854|0]
756,2026-02-27 04:54:00,[103854|0]
757,2026-02-27 04:54:00,[103880|0]
758,2026-02-27 04:54:00,[103888|0]
759,2026-02-27 04:54:00,[103866|0]
760,2026-02-27 04:54:00,[103872|0]
761,2026-02-27 04:54:00,[103892|0]
762,2026-02-27 04:54:00,[103936|0]
763,2026-02-27 04:54:00,[103961|0]
764,2026-02-27 04:54:00,[104006|0]
765,2026-02-27 04:54:00,[104031|0]
766,2026-02-27 04:54:00,[104056|0]
767,2026-02-27 04:54:00,[104077|0]
768,2026-02-27 04:54:00,[104108|0]
769,2026-02-27 04:54:00,[104130|0]
770,2026-02-27 04:54:00,[104173|0]
771,2026-02-27 04:54:00,[104197|0]
772,2026-02-27 04:54:00,[104238|0]
773,2026-02-27 04:54:00,[104273|0]
774,2026-02-27 04:54:01,[104311|0]
775,2026-02-27 04:54:01,[104329|0]
776,2026-02-27 04:54:01,[104280|0]
777,2026-02-27 04:54:01,[104055|0]
778,2026-02-27 04:54:01,[103914|0]
779,2026-02-27 04:54:01,[103862|0]
780,2026-02-27 04:54:01,[103881|0]
781,2026-02-27 04:54:01,[103898|0]
782,2026-02-27 04:54:01,[103922|0]
783,2026-02-27 04:54:01,[103922|0]
784,2026-02-27 04:54:01,[103930|0]
785,2026-02-27 04:54:01,[103918|0]
786,2026-02-27 04:54:01,[103918|0]
787,2026-02-27 04:54:01,[103945|0]
788,2026-02-27 04:54:01,[103974|0]
789,2026-02-27 04:54:01,[104009|0]
790,2026-02-27 04:54:01,[104065|0]
791,2026-02-27 04:54:01,[104081|0]
792,2026-02-27 04:54:01,[104111|0]
793,2026-02-27 04:54:01,[104131|0]
794,2026-02-27 04:54:01,[104156|0]
795,2026-02-27 04:54:01,[104175|0]
796,2026-02-27 04:54:01,[104213|0]
797,2026-02-27 04:54:01,[104257|0]
798,2026-02-27 04:54:01,[104294|0]
799,2026-02-27 04:54:02,[104313|0]
800,2026-02-27 04:54:02,[104348|0]
801,2026-02-27 04:54:02,[104352|0]
802,2026-02-27 04:54:02,[104221|0]
803,2026-02-27 04:54:02,[104005|0]
804,2026-02-27 04:54:02,[103868|0]
805,2026-02-27 04:54:02,[103849|0]
806,2026-02-27 04:54:02,[103855|0]
807,2026-02-27 04:54:02,[103826|0]
808,2026-02-27 04:54:02,[103849|0]
809,2026-02-27 04:54:02,[103852|0]
810,2026-02-27 04:54:02,[103854|0]
811,2026-02-27 04:54:02,[103849|0]
812,2026-02-27 04:54:02,[103864|0]
813,2026-02-27 04:54:02,[103870|0]
814,2026-02-27 04:54:02,[103920|0]
815,2026-02-27 04:54:02,[103949|0]
816,2026-02-27 04:54:02,[103977|0]
817,2026-02-27 04:54:02,[104006|0]
818,2026-02-27 04:54:02,[104037|0]
819,2026-02-27 04:54:02,[104037|0]
820,2026-02-27 04:54:02,[104076|0]
821,2026-02-27 04:54:02,[104116|0]
822,2026-02-27 04:54:02,[104153|0]
823,2026-02-27 04:54:02,[104191|0]
824,2026-02-27 04:54:03,[104221|0]
825,2026-02-27 04:54:03,[104232|0]
826,2026-02-27 04:54:03,[104282|0]
827,2026-02-27 04:54:03,[104319|0]
828,2026-02-27 04:54:03,[104348|0]
829,2026-02-27 04:54:03,[104329|0]
