Packet_Number,Timestamp,Data
1,2026-02-27 04:53:30,[-134.7985347985348|-115.01831501831502|-142.12454212454213|-134.06593406593407|-156.04395604395606]
2,2026-02-27 04:53:30,[-129.67032967032966|-100.36630036630036|-124.54212454212454|-95.97069597069597|-103.2967032967033]
3,2026-02-27 04:53:30,[-79.12087912087912|-63.73626373626374|-71.06227106227107|-47.61904761904762|-73.99267399267399]
4,2026-02-27 04:53:30,[-107.6923076923077|-101.83150183150182|-126.73992673992674|-120.14652014652015|-135.53113553113553]
5,2026-02-27 04:53:30,[-113.55311355311355|-85.71428571428571|-118.68131868131869|-78.3882783882784|60.8058608058608]
6,2026-02-27 04:53:30,[482.7838827838828|1401.4652014652015|1499.6336996336997|441.75824175824175|-415.38461538461536]
7,2026-02-27 04:53:30,[-544.3223443223443|-263.003663003663|-131.13553113553112|-52.747252747252745|-63.73626373626374]
8,2026-02-27 04:53:30,[-50.54945054945055|-13.91941391941392|-29.304029304029303|4.395604395604396|-1.465201465201465]
9,2026-02-27 04:53:30,[12.454212454212454|-5.128205128205129|7.326007326007326|57.875457875457876|62.27106227106227]
10,2026-02-27 04:53:30,[73.99267399267399|109.15750915750915|103.2967032967033|121.6117216117216|122.34432234432235]
11,2026-02-27 04:53:30,[181.6849816849817|242.49084249084248|255.67765567765568|326.007326007326|359.7069597069597]
12,2026-02-27 04:53:30,[397.8021978021978|446.15384615384613|465.9340659340659|515.018315018315|509.15750915750914]
13,2026-02-27 04:53:30,[491.57509157509156|466.6666666666667|367.032967032967|259.34065934065933|115.75091575091575]
14,2026-02-27 04:53:30,[13.91941391941392|-79.12087912087912|-201.46520146520146|-254.21245421245422|-314.2857142857143]
15,2026-02-27 04:53:30,[-357.5091575091575|-387.54578754578756|-415.38461538461536|-394.87179487179486|-400.73260073260076]
16,2026-02-27 04:53:30,[-399.26739926739924|-378.75457875457874|-395.6043956043956|-386.8131868131868|-394.87179487179486]
17,2026-02-27 04:53:30,[-356.7765567765568|-325.27472527472526|-346.5201465201465|-317.2161172161172|-324.54212454212455]
18,2026-02-27 04:53:30,[-315.01831501831504|-320.1465201465202|-326.007326007326|-296.7032967032967|-312.8205128205128]
19,2026-02-27 04:53:30,[-308.42490842490844|-287.9120879120879|-319.4139194139194|-317.2161172161172|-333.3333333333333]
20,2026-02-27 04:53:30,[-321.61172161172163|-301.0989010989011|-321.61172161172163|-296.7032967032967|-303.2967032967033]
21,2026-02-27 04:53:30,[-300.3663003663004|-320.1465201465202|-317.2161172161172|-273.992673992674|-276.1904761904762]
22,2026-02-27 04:53:30,[-273.2600732600733|-249.8168498168498|-271.06227106227107|-271.06227106227107|-287.9120879120879]
23,2026-02-27 04:53:30,[-254.94505494505495|-224.17582417582418|-249.8168498168498|-219.04761904761904|-230.76923076923077]
24,2026-02-27 04:53:31,[-228.57142857142858|-229.3040293040293|-239.56043956043956|-204.3956043956044|-208.05860805860806]
25,2026-02-27 04:53:31,[-202.1978021978022|-180.95238095238096|-205.86080586080587|-190.47619047619048|-206.5934065934066]
26,2026-02-27 04:53:31,[-190.47619047619048|-156.04395604395606|-180.95238095238096|-158.24175824175825|-164.83516483516485]
27,2026-02-27 04:53:31,[-161.17216117216117|-188.2783882783883|-180.95238095238096|-137.72893772893772|-142.85714285714286]
28,2026-02-27 04:53:31,[-142.12454212454213|-132.6007326007326|-129.67032967032966|-100.36630036630036|-117.94871794871794]
29,2026-02-27 04:53:31,[-88.64468864468864|-80.58608058608058|-135.53113553113553|-128.2051282051282|-136.996336996337]
30,2026-02-27 04:53:31,[-129.67032967032966|-130.4029304029304|-136.996336996337|-101.83150183150182|-135.53113553113553]
31,2026-02-27 04:53:31,[-131.86813186813185|57.875457875457876|547.2527472527472|1499.6336996336997|1499.6336996336997]
32,2026-02-27 04:53:31,[389.010989010989|-438.82783882783883|-485.7142857142857|-200.0|-97.43589743589743]
33,2026-02-27 04:53:31,[-63.73626373626374|-72.52747252747253|-77.65567765567765|-28.571428571428573|-29.304029304029303]
34,2026-02-27 04:53:31,[-16.84981684981685|13.186813186813186|-4.395604395604396|13.91941391941392|-9.523809523809524]
35,2026-02-27 04:53:31,[37.362637362637365|79.85347985347985|69.59706959706959|109.15750915750915|120.14652014652015]
36,2026-02-27 04:53:31,[136.26373626373626|160.43956043956044|185.34798534798534|257.14285714285717|277.65567765567766]
37,2026-02-27 04:53:31,[331.13553113553115|400.73260073260076|419.04761904761904|463.003663003663|473.2600732600733]
38,2026-02-27 04:53:31,[523.0769230769231|550.1831501831501|508.42490842490844|488.64468864468864|402.1978021978022]
39,2026-02-27 04:53:31,[295.97069597069594|158.97435897435898|21.245421245421245|-63.73626373626374|-172.16117216117217]
40,2026-02-27 04:53:31,[-251.28205128205127|-293.7728937728938|-353.84615384615387|-378.75457875457874|-413.9194139194139]
41,2026-02-27 04:53:31,[-389.7435897435897|-362.6373626373626|-382.4175824175824|-347.25274725274727|-354.57875457875457]
42,2026-02-27 04:53:31,[-343.5897435897436|-342.85714285714283|-342.12454212454213|-301.0989010989011|-308.42490842490844]
43,2026-02-27 04:53:31,[-299.6336996336996|-277.65567765567766|-299.6336996336996|-291.57509157509156|-314.2857142857143]
44,2026-02-27 04:53:31,[-287.1794871794872|-260.0732600732601|-283.5164835164835|-257.87545787545787|-274.72527472527474]
45,2026-02-27 04:53:31,[-278.38827838827837|-290.84249084249086|-296.7032967032967|-265.9340659340659|-274.72527472527474]
46,2026-02-27 04:53:31,[-271.06227106227107|-257.87545787545787|-274.72527472527474|-267.3992673992674|-287.9120879120879]
47,2026-02-27 04:53:31,[-260.0732600732601|-229.3040293040293|-249.8168498168498|-223.44322344322345|-229.3040293040293]
48,2026-02-27 04:53:31,[-224.17582417582418|-229.3040293040293|-239.56043956043956|-197.06959706959708|-212.45421245421247]
49,2026-02-27 04:53:32,[-202.93040293040292|-191.2087912087912|-205.12820512820514|-204.3956043956044|-230.03663003663004]
50,2026-02-27 04:53:32,[-189.74358974358975|-160.43956043956044|-182.41758241758242|-156.04395604395606|-167.76556776556777]
51,2026-02-27 04:53:32,[-159.7069597069597|-167.03296703296704|-173.62637362637363|-141.3919413919414|-149.45054945054946]
52,2026-02-27 04:53:32,[-142.85714285714286|-126.73992673992674|-150.1831501831502|-145.05494505494505|-169.23076923076923]
53,2026-02-27 04:53:32,[-131.13553113553112|-108.42490842490842|-131.13553113553112|-105.49450549450549|-112.82051282051282]
54,2026-02-27 04:53:32,[-106.22710622710623|-111.35531135531136|-132.6007326007326|-76.92307692307692|-66.66666666666667]
55,2026-02-27 04:53:32,[-49.81684981684982|-35.8974358974359|-79.85347985347985|-106.22710622710623|-154.57875457875457]
56,2026-02-27 04:53:32,[-118.68131868131869|-88.64468864468864|-110.62271062271063|-84.98168498168498|-98.9010989010989]
57,2026-02-27 04:53:32,[-103.2967032967033|-132.6007326007326|-32.234432234432234|383.1501831501831|1288.6446886446886]
58,2026-02-27 04:53:32,[1499.6336996336997|831.5018315018315|-258.6080586080586|-527.4725274725274|-293.040293040293]
59,2026-02-27 04:53:32,[-106.22710622710623|-30.76923076923077|-55.67765567765568|-29.304029304029303|-35.8974358974359]
60,2026-02-27 04:53:32,[-20.512820512820515|-16.117216117216117|-9.523809523809524|33.6996336996337|27.106227106227106]
61,2026-02-27 04:53:32,[41.75824175824176|68.13186813186813|60.07326007326007|73.99267399267399|63.73626373626374]
62,2026-02-27 04:53:32,[116.48351648351648|160.43956043956044|161.9047619047619|216.11721611721612|232.23443223443223]
63,2026-02-27 04:53:32,[275.45787545787545|309.8901098901099|350.1831501831502|435.8974358974359|460.8058608058608]
64,2026-02-27 04:53:32,[510.6227106227106|553.8461538461538|541.3919413919414|529.6703296703297|463.003663003663]
65,2026-02-27 04:53:32,[435.8974358974359|359.7069597069597|208.7912087912088|104.02930402930403|-34.43223443223443]
66,2026-02-27 04:53:32,[-141.3919413919414|-239.56043956043956|-305.4945054945055|-312.0879120879121|-359.7069597069597]
67,2026-02-27 04:53:32,[-369.96336996337|-359.7069597069597|-389.7435897435897|-387.54578754578756|-404.3956043956044]
68,2026-02-27 04:53:32,[-359.7069597069597|-333.3333333333333|-347.98534798534797|-312.8205128205128|-320.1465201465202]
69,2026-02-27 04:53:32,[-308.42490842490844|-313.5531135531136|-312.8205128205128|-274.72527472527474|-286.4468864468864]
70,2026-02-27 04:53:32,[-283.5164835164835|-272.5274725274725|-287.9120879120879|-286.4468864468864|-320.1465201465202]
71,2026-02-27 04:53:32,[-285.7142857142857|-266.6666666666667|-296.7032967032967|-265.9340659340659|-284.98168498168496]
72,2026-02-27 04:53:32,[-273.2600732600733|-282.05128205128204|-293.040293040293|-249.8168498168498|-260.0732600732601]
73,2026-02-27 04:53:32,[-252.01465201465203|-230.76923076923077|-252.01465201465203|-246.8864468864469|-271.06227106227107]
74,2026-02-27 04:53:33,[-235.16483516483515|-207.32600732600733|-230.03663003663004|-200.0|-208.7912087912088]
75,2026-02-27 04:53:33,[-202.93040293040292|-211.7216117216117|-217.58241758241758|-179.48717948717947|-195.6043956043956]
76,2026-02-27 04:53:33,[-188.2783882783883|-169.23076923076923|-189.74358974358975|-183.88278388278388|-213.1868131868132]
77,2026-02-27 04:53:33,[-170.6959706959707|-147.25274725274724|-166.3003663003663|-141.3919413919414|-154.57875457875457]
78,2026-02-27 04:53:33,[-148.71794871794873|-158.97435897435898|-160.43956043956044|-123.80952380952381|-135.53113553113553]
79,2026-02-27 04:53:33,[-126.00732600732601|-114.28571428571429|-134.7985347985348|-123.07692307692308|-153.1135531135531]
80,2026-02-27 04:53:33,[-113.55311355311355|-99.63369963369964|-120.14652014652015|-87.17948717948718|-101.83150183150182]
81,2026-02-27 04:53:33,[-108.42490842490842|-99.63369963369964|-73.99267399267399|-27.106227106227106|-49.08424908424909]
82,2026-02-27 04:53:33,[-54.94505494505494|-71.06227106227107|-120.14652014652015|-121.6117216117216|-146.5201465201465]
83,2026-02-27 04:53:33,[-110.62271062271063|-93.77289377289377|-107.6923076923077|-80.58608058608058|-122.34432234432235]
84,2026-02-27 04:53:33,[-33.6996336996337|241.02564102564102|960.4395604395604|1499.6336996336997|1016.8498168498169]
85,2026-02-27 04:53:33,[-87.91208791208791|-556.0439560439561|-366.3003663003663|-136.996336996337|-71.06227106227107]
86,2026-02-27 04:53:33,[-41.02564102564103|-24.175824175824175|-38.095238095238095|-5.128205128205129|-16.117216117216117]
87,2026-02-27 04:53:33,[6.593406593406593|-25.641025641025642|-8.058608058608058|52.014652014652015|51.282051282051285]
88,2026-02-27 04:53:33,[66.66666666666667|91.57509157509158|88.64468864468864|112.82051282051282|104.76190476190476]
89,2026-02-27 04:53:33,[156.04395604395606|202.1978021978022|213.1868131868132|280.5860805860806|307.6923076923077]
90,2026-02-27 04:53:33,[358.24175824175825|393.4065934065934|430.03663003663|506.2271062271062|507.6923076923077]
91,2026-02-27 04:53:33,[529.6703296703297|535.5311355311355|485.7142857142857|427.1062271062271|307.6923076923077]
92,2026-02-27 04:53:33,[230.76923076923077|117.21611721611721|-29.304029304029303|-109.15750915750915|-209.52380952380952]
93,2026-02-27 04:53:33,[-267.3992673992674|-331.13553113553115|-361.9047619047619|-342.85714285714283|-377.2893772893773]
94,2026-02-27 04:53:33,[-369.96336996337|-353.84615384615387|-377.2893772893773|-362.6373626373626|-390.4761904761905]
95,2026-02-27 04:53:33,[-340.65934065934067|-314.2857142857143|-333.3333333333333|-296.7032967032967|-312.8205128205128]
96,2026-02-27 04:53:33,[-297.43589743589746|-306.959706959707|-313.5531135531136|-276.9230769230769|-293.7728937728938]
97,2026-02-27 04:53:33,[-290.84249084249086|-283.5164835164835|-302.56410256410254|-310.6227106227106|-345.7875457875458]
98,2026-02-27 04:53:33,[-302.56410256410254|-288.64468864468864|-317.2161172161172|-286.4468864468864|-300.3663003663004]
99,2026-02-27 04:53:33,[-293.040293040293|-306.959706959707|-308.42490842490844|-265.9340659340659|-284.98168498168496]
100,2026-02-27 04:53:34,[-271.79487179487177|-255.67765567765568|-275.45787545787545|-272.5274725274725|-299.6336996336996]
101,2026-02-27 04:53:34,[-254.94505494505495|-239.56043956043956|-260.8058608058608|-227.83882783882783|-246.8864468864469]
102,2026-02-27 04:53:34,[-237.36263736263737|-246.8864468864469|-243.2234432234432|-208.7912087912088|-225.64102564102564]
103,2026-02-27 04:53:34,[-213.1868131868132|-196.33699633699635|-220.51282051282053|-214.65201465201466|-242.49084249084248]
104,2026-02-27 04:53:34,[-200.0|-179.48717948717947|-202.1978021978022|-172.16117216117217|-193.4065934065934]
105,2026-02-27 04:53:34,[-173.62637362637363|-188.2783882783883|-194.13919413919413|-153.1135531135531|-169.23076923076923]
106,2026-02-27 04:53:34,[-160.43956043956044|-147.25274725274724|-161.9047619047619|-169.96336996336996|-194.13919413919413]
107,2026-02-27 04:53:34,[-120.87912087912088|-83.51648351648352|-102.56410256410257|-87.17948717948718|-126.73992673992674]
108,2026-02-27 04:53:34,[-147.98534798534797|-172.8937728937729|-178.02197802197801|-131.13553113553112|-149.45054945054946]
109,2026-02-27 04:53:34,[-134.06593406593407|-122.34432234432235|-160.43956043956044|-132.6007326007326|32.234432234432234]
110,2026-02-27 04:53:34,[618.3150183150183|1499.6336996336997|1372.161172161172|221.97802197802199|-531.1355311355311]
111,2026-02-27 04:53:34,[-462.27106227106225|-223.44322344322345|-115.01831501831502|-53.47985347985348|-75.45787545787546]
112,2026-02-27 04:53:34,[-59.34065934065934|-33.6996336996337|-42.49084249084249|-34.43223443223443|-59.34065934065934]
113,2026-02-27 04:53:34,[6.593406593406593|31.501831501831504|19.78021978021978|57.875457875457876|50.54945054945055]
114,2026-02-27 04:53:34,[77.65567765567765|87.91208791208791|93.04029304029304|154.57875457875457|157.50915750915752]
115,2026-02-27 04:53:34,[202.93040293040292|251.28205128205127|262.27106227106225|314.2857142857143|327.4725274725275]
116,2026-02-27 04:53:34,[416.1172161172161|473.992673992674|485.7142857142857|534.065934065934|509.15750915750914]
117,2026-02-27 04:53:34,[495.97069597069594|437.3626373626374|354.57875457875457|277.65567765567766|134.06593406593407]
118,2026-02-27 04:53:34,[22.71062271062271|-82.78388278388279|-200.73260073260073|-265.9340659340659|-347.98534798534797]
119,2026-02-27 04:53:34,[-345.05494505494505|-354.57875457875457|-387.54578754578756|-361.17216117216117|-380.95238095238096]
120,2026-02-27 04:53:34,[-361.17216117216117|-380.2197802197802|-371.42857142857144|-325.27472527472526|-335.53113553113553]
121,2026-02-27 04:53:34,[-320.8791208791209|-301.0989010989011|-320.1465201465202|-309.8901098901099|-334.7985347985348]
122,2026-02-27 04:53:34,[-283.5164835164835|-266.6666666666667|-289.3772893772894|-263.003663003663|-286.4468864468864]
123,2026-02-27 04:53:34,[-268.13186813186815|-286.4468864468864|-295.23809523809524|-259.34065934065933|-284.98168498168496]
124,2026-02-27 04:53:35,[-273.2600732600733|-262.27106227106225|-283.5164835164835|-274.72527472527474|-307.6923076923077]
125,2026-02-27 04:53:35,[-261.53846153846155|-242.49084249084248|-260.0732600732601|-236.63003663003664|-252.01465201465203]
126,2026-02-27 04:53:35,[-236.63003663003664|-249.8168498168498|-249.8168498168498|-209.52380952380952|-229.3040293040293]
127,2026-02-27 04:53:35,[-216.11721611721612|-209.52380952380952|-220.51282051282053|-214.65201465201466|-247.61904761904762]
128,2026-02-27 04:53:35,[-197.8021978021978|-178.02197802197801|-195.6043956043956|-167.76556776556777|-189.74358974358975]
129,2026-02-27 04:53:35,[-169.96336996336996|-188.2783882783883|-188.2783882783883|-153.1135531135531|-170.6959706959707]
130,2026-02-27 04:53:35,[-148.71794871794873|-142.85714285714286|-159.7069597069597|-157.50915750915752|-192.67399267399267]
131,2026-02-27 04:53:35,[-146.5201465201465|-127.47252747252747|-144.32234432234432|-113.55311355311355|-135.53113553113553]
132,2026-02-27 04:53:35,[-120.87912087912088|-134.06593406593407|-131.86813186813185|-95.97069597069597|-117.94871794871794]
133,2026-02-27 04:53:35,[-101.83150183150182|-95.97069597069597|-117.94871794871794|-95.97069597069597|-98.16849816849818]
134,2026-02-27 04:53:35,[-43.223443223443226|-40.29304029304029|-75.45787545787546|-77.65567765567765|-121.6117216117216]
135,2026-02-27 04:53:35,[-105.49450549450549|-123.80952380952381|-123.80952380952381|-89.37728937728937|-106.22710622710623]
136,2026-02-27 04:53:35,[-99.63369963369964|-106.95970695970696|18.315018315018314|474.72527472527474|1404.3956043956043]
137,2026-02-27 04:53:35,[1499.6336996336997|583.8827838827839|-380.95238095238096|-462.27106227106225|-227.1062271062271]
138,2026-02-27 04:53:35,[-75.45787545787546|-59.34065934065934|-62.27106227106227|-28.571428571428573|-37.362637362637365]
139,2026-02-27 04:53:35,[-5.128205128205129|10.989010989010989|-4.395604395604396|13.91941391941392|-14.652014652014651]
140,2026-02-27 04:53:35,[42.49084249084249|68.86446886446886|65.93406593406593|101.83150183150182|93.04029304029304]
141,2026-02-27 04:53:35,[127.47252747252747|128.2051282051282|158.97435897435898|220.51282051282053|232.23443223443223]
142,2026-02-27 04:53:35,[287.1794871794872|334.7985347985348|359.7069597069597|413.9194139194139|425.64102564102564]
143,2026-02-27 04:53:35,[505.4945054945055|541.3919413919414|523.8095238095239|534.065934065934|468.13186813186815]
144,2026-02-27 04:53:35,[419.7802197802198|302.56410256410254|178.02197802197801|80.58608058608058|-59.34065934065934]
145,2026-02-27 04:53:35,[-148.71794871794873|-226.37362637362637|-308.42490842490844|-340.65934065934067|-402.1978021978022]
146,2026-02-27 04:53:35,[-372.16117216117215|-370.6959706959707|-391.94139194139194|-356.7765567765568|-371.42857142857144]
147,2026-02-27 04:53:35,[-353.84615384615387|-360.43956043956047|-352.3809523809524|-314.2857142857143|-331.13553113553115]
148,2026-02-27 04:53:35,[-306.959706959707|-295.23809523809524|-306.2271062271062|-299.6336996336996|-334.7985347985348]
149,2026-02-27 04:53:36,[-287.9120879120879|-274.72527472527474|-295.23809523809524|-267.3992673992674|-289.3772893772894]
150,2026-02-27 04:53:36,[-275.45787545787545|-298.16849816849816|-301.0989010989011|-266.6666666666667|-290.84249084249086]
151,2026-02-27 04:53:36,[-273.2600732600733|-266.6666666666667|-284.98168498168496|-273.2600732600733|-308.42490842490844]
152,2026-02-27 04:53:36,[-260.0732600732601|-243.95604395604394|-260.0732600732601|-238.0952380952381|-249.8168498168498]
153,2026-02-27 04:53:36,[-227.83882783882783|-247.61904761904762|-246.15384615384616|-211.7216117216117|-227.83882783882783]
154,2026-02-27 04:53:36,[-207.32600732600733|-200.0|-213.1868131868132|-208.7912087912088|-239.56043956043956]
155,2026-02-27 04:53:36,[-191.2087912087912|-173.62637362637363|-191.2087912087912|-164.83516483516485|-180.95238095238096]
156,2026-02-27 04:53:36,[-161.9047619047619|-180.95238095238096|-174.35897435897436|-143.5897435897436|-166.3003663003663]
157,2026-02-27 04:53:36,[-141.3919413919414|-131.86813186813185|-147.25274725274724|-148.71794871794873|-176.55677655677655]
158,2026-02-27 04:53:36,[-126.73992673992674|-115.01831501831502|-126.73992673992674|-101.0989010989011|-123.07692307692308]
159,2026-02-27 04:53:36,[-98.9010989010989|-117.94871794871794|-122.34432234432235|-90.10989010989012|-112.82051282051282]
160,2026-02-27 04:53:36,[-87.91208791208791|-84.98168498168498|-106.22710622710623|-107.6923076923077|-112.08791208791209]
161,2026-02-27 04:53:36,[-41.02564102564103|-18.315018315018314|-47.61904761904762|-37.362637362637365|-88.64468864468864]
162,2026-02-27 04:53:36,[-87.91208791208791|-107.6923076923077|-100.36630036630036|-66.66666666666667|-90.10989010989012]
163,2026-02-27 04:53:36,[-73.99267399267399|-84.24908424908425|-100.36630036630036|53.47985347985348|460.0732600732601]
164,2026-02-27 04:53:36,[1499.6336996336997|1499.6336996336997|520.8791208791209|-384.61538461538464|-495.97069597069594]
165,2026-02-27 04:53:36,[-205.12820512820514|-88.64468864468864|-37.362637362637365|-13.186813186813186|-32.234432234432234]
166,2026-02-27 04:53:36,[-5.128205128205129|12.454212454212454|6.593406593406593|21.245421245421245|-5.86080586080586]
167,2026-02-27 04:53:36,[52.747252747252745|68.86446886446886|66.66666666666667|106.95970695970696|93.04029304029304]
168,2026-02-27 04:53:36,[126.73992673992674|122.34432234432235|145.78754578754578|205.86080586080587|207.32600732600733]
169,2026-02-27 04:53:36,[255.67765567765568|300.3663003663004|326.007326007326|374.35897435897436|387.54578754578756]
170,2026-02-27 04:53:36,[477.65567765567766|515.018315018315|525.2747252747253|556.0439560439561|519.4139194139194]
171,2026-02-27 04:53:36,[501.0989010989011|403.6630036630037|307.6923076923077|219.04761904761904|65.2014652014652]
172,2026-02-27 04:53:36,[-32.234432234432234|-131.86813186813185|-224.17582417582418|-261.53846153846155|-322.34432234432234]
173,2026-02-27 04:53:37,[-333.3333333333333|-345.05494505494505|-365.56776556776555|-338.46153846153845|-364.1025641025641]
174,2026-02-27 04:53:37,[-342.12454212454213|-389.010989010989|-361.17216117216117|-304.02930402930406|-317.2161172161172]
175,2026-02-27 04:53:37,[-298.9010989010989|-287.9120879120879|-299.6336996336996|-293.7728937728938|-323.0769230769231]
176,2026-02-27 04:53:37,[-273.2600732600733|-265.9340659340659|-282.05128205128204|-255.67765567765568|-288.64468864468864]
177,2026-02-27 04:53:37,[-270.3296703296703|-301.83150183150184|-299.6336996336996|-267.3992673992674|-293.7728937728938]
178,2026-02-27 04:53:37,[-270.3296703296703|-268.86446886446885|-282.7838827838828|-282.05128205128204|-310.6227106227106]
179,2026-02-27 04:53:37,[-260.0732600732601|-254.21245421245422|-264.46886446886447|-235.89743589743588|-258.6080586080586]
180,2026-02-27 04:53:37,[-236.63003663003664|-260.0732600732601|-255.67765567765568|-219.78021978021977|-241.02564102564102]
181,2026-02-27 04:53:37,[-217.58241758241758|-213.91941391941393|-224.17582417582418|-227.83882783882783|-258.6080586080586]
182,2026-02-27 04:53:37,[-205.12820512820514|-195.6043956043956|-211.7216117216117|-178.75457875457874|-202.93040293040292]
183,2026-02-27 04:53:37,[-178.02197802197801|-204.3956043956044|-202.93040293040292|-167.76556776556777|-183.88278388278388]
184,2026-02-27 04:53:37,[-164.83516483516485|-164.83516483516485|-178.75457875457874|-172.8937728937729|-211.7216117216117]
185,2026-02-27 04:53:37,[-160.43956043956044|-154.57875457875457|-167.76556776556777|-145.78754578754578|-167.76556776556777]
186,2026-02-27 04:53:37,[-142.12454212454213|-167.76556776556777|-169.96336996336996|-124.54212454212454|-115.01831501831502]
187,2026-02-27 04:53:37,[-79.85347985347985|-89.37728937728937|-116.48351648351648|-134.06593406593407|-203.66300366300365]
188,2026-02-27 04:53:37,[-154.57875457875457|-144.32234432234432|-155.3113553113553|-126.73992673992674|-154.57875457875457]
189,2026-02-27 04:53:37,[-141.3919413919414|-172.16117216117217|-95.97069597069597|218.3150183150183|863.003663003663]
190,2026-02-27 04:53:37,[1499.6336996336997|920.8791208791209|-119.41391941391942|-604.3956043956044|-447.6190476190476]
191,2026-02-27 04:53:37,[-183.15018315018315|-90.10989010989012|-87.17948717948718|-60.07326007326007|-76.92307692307692]
192,2026-02-27 04:53:37,[-48.35164835164835|-60.8058608058608|-49.08424908424909|3.663003663003663|-16.84981684981685]
193,2026-02-27 04:53:37,[17.582417582417584|28.571428571428573|22.71062271062271|41.02564102564103|23.44322344322344]
194,2026-02-27 04:53:37,[91.57509157509158|116.48351648351648|126.73992673992674|180.21978021978023|191.2087912087912]
195,2026-02-27 04:53:37,[245.42124542124543|252.74725274725276|304.02930402930406|389.7435897435897|409.5238095238095]
196,2026-02-27 04:53:37,[464.46886446886447|486.4468864468864|483.5164835164835|478.38827838827837|414.65201465201466]
197,2026-02-27 04:53:37,[409.5238095238095|326.007326007326|202.93040293040292|97.43589743589743|-47.61904761904762]
198,2026-02-27 04:53:37,[-130.4029304029304|-243.95604395604394|-302.56410256410254|-318.68131868131866|-371.42857142857144]
199,2026-02-27 04:53:38,[-367.76556776556777|-380.2197802197802|-393.4065934065934|-393.4065934065934|-424.1758241758242]
200,2026-02-27 04:53:38,[-362.6373626373626|-353.1135531135531|-353.84615384615387|-318.68131868131866|-334.7985347985348]
201,2026-02-27 04:53:38,[-310.6227106227106|-332.6007326007326|-320.1465201465202|-276.9230769230769|-298.16849816849816]
202,2026-02-27 04:53:38,[-274.72527472527474|-271.79487179487177|-284.98168498168496|-286.4468864468864|-325.27472527472526]
203,2026-02-27 04:53:38,[-282.05128205128204|-282.7838827838828|-295.23809523809524|-271.79487179487177|-296.7032967032967]
204,2026-02-27 04:53:38,[-275.45787545787545|-299.6336996336996|-295.23809523809524|-255.67765567765568|-276.1904761904762]
205,2026-02-27 04:53:38,[-252.74725274725276|-258.6080586080586|-266.6666666666667|-260.8058608058608|-289.3772893772894]
206,2026-02-27 04:53:38,[-237.36263736263737|-227.83882783882783|-238.0952380952381|-208.05860805860806|-236.63003663003664]
207,2026-02-27 04:53:38,[-214.65201465201466|-241.75824175824175|-227.83882783882783|-196.33699633699635|-214.65201465201466]
208,2026-02-27 04:53:38,[-188.2783882783883|-193.4065934065934|-197.06959706959708|-181.6849816849817|-207.32600732600733]
209,2026-02-27 04:53:38,[-170.6959706959707|-168.4981684981685|-175.0915750915751|-150.1831501831502|-173.62637362637363]
210,2026-02-27 04:53:38,[-153.84615384615384|-195.6043956043956|-178.02197802197801|-132.6007326007326|-158.24175824175825]
211,2026-02-27 04:53:38,[-134.7985347985348|-133.33333333333334|-135.53113553113553|-136.26373626373626|-169.23076923076923]
212,2026-02-27 04:53:38,[-113.55311355311355|-112.08791208791209|-122.34432234432235|-100.36630036630036|-117.94871794871794]
213,2026-02-27 04:53:38,[-106.22710622710623|-115.01831501831502|-75.45787545787546|-38.095238095238095|-73.99267399267399]
214,2026-02-27 04:53:38,[-59.34065934065934|-86.44688644688645|-119.41391941391942|-116.48351648351648|-145.78754578754578]
215,2026-02-27 04:53:38,[-88.64468864468864|-93.77289377289377|-98.16849816849818|-85.71428571428571|-122.34432234432235]
216,2026-02-27 04:53:38,[38.827838827838825|449.8168498168498|1459.3406593406594|1499.6336996336997|571.4285714285714]
217,2026-02-27 04:53:38,[-353.84615384615387|-475.45787545787545|-219.04761904761904|-90.10989010989012|-90.10989010989012]
218,2026-02-27 04:53:38,[-39.56043956043956|-32.967032967032964|-31.501831501831504|5.128205128205129|-12.454212454212454]
219,2026-02-27 04:53:38,[22.71062271062271|-6.593406593406593|16.84981684981685|60.8058608058608|43.956043956043956]
220,2026-02-27 04:53:38,[79.85347985347985|88.64468864468864|103.2967032967033|115.75091575091575|103.2967032967033]
221,2026-02-27 04:53:38,[181.6849816849817|207.32600732600733|239.56043956043956|299.6336996336996|312.8205128205128]
222,2026-02-27 04:53:38,[386.0805860805861|401.46520146520146|450.54945054945057|515.018315018315|506.959706959707]
223,2026-02-27 04:53:38,[538.4615384615385|520.8791208791209|473.2600732600733|400.73260073260076|265.2014652014652]
224,2026-02-27 04:53:39,[201.46520146520146|67.3992673992674|-59.34065934065934|-136.996336996337|-246.15384615384616]
225,2026-02-27 04:53:39,[-272.5274725274725|-341.3919413919414|-367.032967032967|-351.64835164835165|-388.27838827838826]
226,2026-02-27 04:53:39,[-359.7069597069597|-369.2307692307692|-368.4981684981685|-367.76556776556777|-394.87179487179486]
227,2026-02-27 04:53:39,[-334.0659340659341|-320.8791208791209|-323.0769230769231|-295.23809523809524|-310.6227106227106]
228,2026-02-27 04:53:39,[-287.9120879120879|-314.2857142857143|-301.0989010989011|-265.2014652014652|-293.040293040293]
229,2026-02-27 04:53:39,[-271.06227106227107|-276.1904761904762|-287.1794871794872|-290.1098901098901|-329.6703296703297]
230,2026-02-27 04:53:39,[-273.992673992674|-282.05128205128204|-286.4468864468864|-260.0732600732601|-287.1794871794872]
231,2026-02-27 04:53:39,[-261.53846153846155|-289.3772893772894|-273.2600732600733|-239.56043956043956|-263.003663003663]
232,2026-02-27 04:53:39,[-235.16483516483515|-239.56043956043956|-242.49084249084248|-248.35164835164835|-279.1208791208791]
233,2026-02-27 04:53:39,[-219.78021978021977|-217.58241758241758|-220.51282051282053|-193.4065934065934|-216.84981684981685]
234,2026-02-27 04:53:39,[-192.67399267399267|-224.9084249084249|-213.91941391941393|-178.02197802197801|-205.86080586080587]
235,2026-02-27 04:53:39,[-175.0915750915751|-182.41758241758242|-183.15018315018315|-182.41758241758242|-216.11721611721612]
236,2026-02-27 04:53:39,[-156.04395604395606|-157.50915750915752|-161.9047619047619|-147.25274725274724|-167.76556776556777]
237,2026-02-27 04:53:39,[-132.6007326007326|-161.9047619047619|-154.57875457875457|-121.6117216117216|-141.3919413919414]
238,2026-02-27 04:53:39,[-115.75091575091575|-120.87912087912088|-123.80952380952381|-125.27472527472527|-157.50915750915752]
239,2026-02-27 04:53:39,[-106.22710622710623|-106.95970695970696|-110.62271062271063|-84.24908424908425|-110.62271062271063]
240,2026-02-27 04:53:39,[-84.98168498168498|-119.41391941391942|-108.42490842490842|-75.45787545787546|-102.56410256410257]
241,2026-02-27 04:53:39,[-71.06227106227107|-82.78388278388279|-82.78388278388279|-60.8058608058608|-72.52747252747253]
242,2026-02-27 04:53:39,[-16.117216117216117|-30.036630036630036|-55.67765567765568|-54.21245421245421|-87.17948717948718]
243,2026-02-27 04:53:39,[-68.13186813186813|-99.63369963369964|-84.98168498168498|-54.21245421245421|-74.72527472527473]
244,2026-02-27 04:53:39,[-71.06227106227107|-65.2014652014652|128.2051282051282|731.1355311355311|1499.6336996336997]
245,2026-02-27 04:53:39,[1499.6336996336997|254.21245421245422|-486.4468864468864|-367.032967032967|-157.50915750915752]
246,2026-02-27 04:53:39,[-27.83882783882784|-37.362637362637365|-30.036630036630036|5.128205128205129|-11.72161172161172]
247,2026-02-27 04:53:39,[29.304029304029303|28.571428571428573|32.234432234432234|32.967032967032964|6.593406593406593]
248,2026-02-27 04:53:39,[77.65567765567765|87.17948717948718|90.10989010989012|126.73992673992674|120.87912087912088]
249,2026-02-27 04:53:39,[167.76556776556777|146.5201465201465|185.34798534798534|247.61904761904762|254.21245421245422]
250,2026-02-27 04:53:40,[315.75091575091574|350.9157509157509|398.53479853479854|440.2930402930403|440.2930402930403]
251,2026-02-27 04:53:40,[530.4029304029305|541.3919413919414|543.5897435897435|535.5311355311355|463.7362637362637]
252,2026-02-27 04:53:40,[419.04761904761904|276.9230769230769|160.43956043956044|57.142857142857146|-77.65567765567765]
253,2026-02-27 04:53:40,[-147.25274725274724|-235.16483516483515|-290.84249084249086|-331.86813186813185|-391.94139194139194]
254,2026-02-27 04:53:40,[-351.64835164835165|-356.7765567765568|-367.032967032967|-345.05494505494505|-360.43956043956047]
255,2026-02-27 04:53:40,[-329.6703296703297|-357.5091575091575|-335.53113553113553|-298.16849816849816|-314.2857142857143]
256,2026-02-27 04:53:40,[-286.4468864468864|-293.7728937728938|-290.84249084249086|-295.23809523809524|-330.4029304029304]
257,2026-02-27 04:53:40,[-271.79487179487177|-283.5164835164835|-286.4468864468864|-271.79487179487177|-295.23809523809524]
258,2026-02-27 04:53:40,[-270.3296703296703|-309.8901098901099|-295.97069597069594|-264.46886446886447|-290.84249084249086]
259,2026-02-27 04:53:40,[-264.46886446886447|-282.05128205128204|-282.05128205128204|-254.94505494505495|-275.45787545787545]
260,2026-02-27 04:53:40,[-249.8168498168498|-258.6080586080586|-261.53846153846155|-239.56043956043956|-260.0732600732601]
261,2026-02-27 04:53:40,[-227.83882783882783|-296.7032967032967|-265.2014652014652|-219.04761904761904|-240.2930402930403]
262,2026-02-27 04:53:40,[-209.52380952380952|-219.78021978021977|-219.04761904761904|-220.51282051282053|-247.61904761904762]
263,2026-02-27 04:53:40,[-191.94139194139194|-197.06959706959708|-197.06959706959708|-172.16117216117217|-201.46520146520146]
264,2026-02-27 04:53:40,[-173.62637362637363|-202.93040293040292|-190.47619047619048|-161.9047619047619|-188.2783882783883]
265,2026-02-27 04:53:40,[-156.04395604395606|-166.3003663003663|-170.6959706959707|-176.55677655677655|-208.05860805860806]
266,2026-02-27 04:53:40,[-147.98534798534797|-156.04395604395606|-156.04395604395606|-131.13553113553112|-158.24175824175825]
267,2026-02-27 04:53:40,[-134.06593406593407|-168.4981684981685|-149.45054945054946|-122.34432234432235|-145.05494505494505]
268,2026-02-27 04:53:40,[-118.68131868131869|-142.85714285714286|-113.55311355311355|-100.36630036630036|-124.54212454212454]
269,2026-02-27 04:53:40,[-73.26007326007326|-103.2967032967033|-134.06593406593407|-134.06593406593407|-153.84615384615384]
270,2026-02-27 04:53:40,[-119.41391941391942|-132.6007326007326|-132.6007326007326|-112.08791208791209|-145.05494505494505]
271,2026-02-27 04:53:40,[-112.82051282051282|10.989010989010989|408.7912087912088|1307.6923076923076|1499.6336996336997]
272,2026-02-27 04:53:40,[499.6336996336996|-391.94139194139194|-542.8571428571429|-258.6080586080586|-142.85714285714286]
273,2026-02-27 04:53:40,[-63.73626373626374|-100.36630036630036|-76.19047619047619|-41.75824175824176|-53.47985347985348]
274,2026-02-27 04:53:41,[-13.91941391941392|-24.175824175824175|-13.91941391941392|-12.454212454212454|-32.234432234432234]
275,2026-02-27 04:53:41,[40.29304029304029|44.688644688644686|57.142857142857146|87.17948717948718|87.17948717948718]
276,2026-02-27 04:53:41,[131.13553113553112|113.55311355311355|160.43956043956044|226.37362637362637|239.56043956043956]
277,2026-02-27 04:53:41,[313.5531135531136|345.05494505494505|391.94139194139194|432.967032967033|438.0952380952381]
278,2026-02-27 04:53:41,[506.2271062271062|497.43589743589746|479.8534798534798|460.0732600732601|369.96336996337]
279,2026-02-27 04:53:41,[295.23809523809524|113.55311355311355|13.91941391941392|-65.93406593406593|-183.88278388278388]
280,2026-02-27 04:53:41,[-238.0952380952381|-306.959706959707|-342.85714285714283|-380.95238095238096|-430.7692307692308]
281,2026-02-27 04:53:41,[-380.2197802197802|-389.010989010989|-387.54578754578756|-361.9047619047619|-381.68498168498166]
282,2026-02-27 04:53:41,[-347.98534798534797|-378.75457875457874|-347.98534798534797|-315.75091575091574|-331.86813186813185]
283,2026-02-27 04:53:41,[-301.0989010989011|-305.4945054945055|-300.3663003663004|-307.6923076923077|-343.5897435897436]
284,2026-02-27 04:53:41,[-276.9230769230769|-286.4468864468864|-289.3772893772894|-274.72527472527474|-299.6336996336996]
285,2026-02-27 04:53:41,[-273.2600732600733|-321.61172161172163|-301.0989010989011|-271.79487179487177|-297.43589743589746]
286,2026-02-27 04:53:41,[-265.9340659340659|-283.5164835164835|-282.05128205128204|-285.7142857142857|-311.35531135531136]
287,2026-02-27 04:53:41,[-252.74725274725276|-258.6080586080586|-252.74725274725276|-229.3040293040293|-252.74725274725276]
288,2026-02-27 04:53:41,[-220.51282051282053|-254.21245421245422|-238.0952380952381|-207.32600732600733|-225.64102564102564]
289,2026-02-27 04:53:41,[-195.6043956043956|-207.32600732600733|-201.46520146520146|-208.7912087912088|-241.02564102564102]
290,2026-02-27 04:53:41,[-181.6849816849817|-191.94139194139194|-192.67399267399267|-167.03296703296704|-182.41758241758242]
291,2026-02-27 04:53:41,[-158.24175824175825|-195.6043956043956|-173.62637362637363|-146.5201465201465|-167.76556776556777]
292,2026-02-27 04:53:41,[-134.7985347985348|-148.71794871794873|-147.25274725274724|-150.1831501831502|-181.6849816849817]
293,2026-02-27 04:53:41,[-125.27472527472527|-134.7985347985348|-129.67032967032966|-119.41391941391942|-134.06593406593407]
294,2026-02-27 04:53:41,[-101.0989010989011|-146.5201465201465|-128.2051282051282|-102.56410256410257|-126.73992673992674]
295,2026-02-27 04:53:41,[-97.43589743589743|-106.95970695970696|-98.9010989010989|-109.15750915750915|-145.05494505494505]
296,2026-02-27 04:53:41,[-94.50549450549451|-76.19047619047619|-47.61904761904762|-25.641025641025642|-52.014652014652015]
297,2026-02-27 04:53:41,[-41.02564102564103|-110.62271062271063|-109.15750915750915|-84.24908424908425|-98.16849816849818]
298,2026-02-27 04:53:41,[-73.26007326007326|-87.91208791208791|-84.98168498168498|-109.15750915750915|-154.57875457875457]
299,2026-02-27 04:53:42,[27.106227106227106|438.82783882783883|1434.4322344322345|1499.6336996336997|639.5604395604396]
300,2026-02-27 04:53:42,[-309.15750915750914|-508.42490842490844|-217.58241758241758|-56.41025641025641|-43.223443223443226]
301,2026-02-27 04:53:42,[-18.315018315018314|-36.63003663003663|-26.373626373626372|-20.512820512820515|-49.81684981684982]
302,2026-02-27 04:53:42,[21.245421245421245|19.78021978021978|31.501831501831504|60.8058608058608|46.15384615384615]
303,2026-02-27 04:53:42,[88.64468864468864|66.66666666666667|104.76190476190476|139.9267399267399|135.53113553113553]
304,2026-02-27 04:53:42,[195.6043956043956|205.86080586080587|242.49084249084248|271.79487179487177|277.65567765567766]
305,2026-02-27 04:53:42,[390.4761904761905|419.7802197802198|463.7362637362637|513.5531135531136|520.8791208791209]
306,2026-02-27 04:53:42,[556.7765567765567|498.9010989010989|485.7142857142857|441.75824175824175|315.75091575091574]
307,2026-02-27 04:53:42,[222.71062271062272|76.92307692307692|-42.49084249084249|-153.1135531135531|-267.3992673992674]
308,2026-02-27 04:53:42,[-271.06227106227107|-323.8095238095238|-348.71794871794873|-354.57875457875457|-389.7435897435897]
309,2026-02-27 04:53:42,[-359.7069597069597|-402.1978021978022|-379.4871794871795|-347.98534798534797|-361.17216117216117]
310,2026-02-27 04:53:42,[-321.61172161172163|-336.2637362637363|-328.93772893772893|-334.0659340659341|-355.3113553113553]
311,2026-02-27 04:53:42,[-293.7728937728938|-299.6336996336996|-287.9120879120879|-276.1904761904762|-294.5054945054945]
312,2026-02-27 04:53:42,[-263.003663003663|-308.42490842490844|-287.9120879120879|-265.2014652014652|-295.23809523809524]
313,2026-02-27 04:53:42,[-265.2014652014652|-287.9120879120879|-284.24908424908426|-287.9120879120879|-320.1465201465202]
314,2026-02-27 04:53:42,[-261.53846153846155|-272.5274725274725|-265.9340659340659|-246.8864468864469|-268.13186813186815]
315,2026-02-27 04:53:42,[-237.36263736263737|-274.72527472527474|-249.8168498168498|-226.37362637362637|-248.35164835164835]
316,2026-02-27 04:53:42,[-216.11721611721612|-227.83882783882783|-218.3150183150183|-230.76923076923077|-258.6080586080586]
317,2026-02-27 04:53:42,[-195.6043956043956|-207.32600732600733|-197.8021978021978|-188.2783882783883|-205.12820512820514]
318,2026-02-27 04:53:42,[-170.6959706959707|-215.3846153846154|-182.41758241758242|-160.43956043956044|-180.95238095238096]
319,2026-02-27 04:53:42,[-155.3113553113553|-169.23076923076923|-156.04395604395606|-166.3003663003663|-194.13919413919413]
320,2026-02-27 04:53:42,[-134.06593406593407|-150.1831501831502|-142.85714285714286|-125.27472527472527|-142.12454212454213]
321,2026-02-27 04:53:42,[-113.55311355311355|-156.04395604395606|-126.73992673992674|-102.56410256410257|-120.87912087912088]
322,2026-02-27 04:53:42,[-88.64468864468864|-112.08791208791209|-103.2967032967033|-112.08791208791209|-142.85714285714286]
323,2026-02-27 04:53:42,[-83.51648351648352|-100.36630036630036|-88.64468864468864|-75.45787545787546|-90.10989010989012]
324,2026-02-27 04:53:42,[-63.73626373626374|-115.01831501831502|-90.10989010989012|-41.75824175824176|-38.827838827838825]
325,2026-02-27 04:53:43,[-6.593406593406593|-37.362637362637365|-52.747252747252745|-88.64468864468864|-133.33333333333334]
326,2026-02-27 04:53:43,[-73.99267399267399|-79.85347985347985|-73.99267399267399|-64.46886446886447|-87.17948717948718]
327,2026-02-27 04:53:43,[-76.92307692307692|-88.64468864468864|139.9267399267399|799.2673992673992|1499.6336996336997]
328,2026-02-27 04:53:43,[1436.6300366300366|181.6849816849817|-501.83150183150184|-392.6739926739927|-191.94139194139194]
329,2026-02-27 04:53:43,[-35.8974358974359|-31.501831501831504|-21.245421245421245|-12.454212454212454|-21.245421245421245]
330,2026-02-27 04:53:43,[25.641025641025642|-14.652014652014651|21.978021978021978|50.54945054945055|38.095238095238095]
331,2026-02-27 04:53:43,[78.3882783882784|72.52747252747253|88.64468864468864|90.10989010989012|76.19047619047619]
332,2026-02-27 04:53:43,[161.17216117216117|167.76556776556777|197.06959706959708|242.49084249084248|257.14285714285717]
333,2026-02-27 04:53:43,[322.34432234432234|323.0769230769231|396.3369963369963|462.27106227106225|484.24908424908426]
334,2026-02-27 04:53:43,[545.054945054945|541.3919413919414|550.1831501831501|515.018315018315|435.8974358974359]
335,2026-02-27 04:53:43,[413.1868131868132|287.1794871794872|173.62637362637363|54.94505494505494|-84.24908424908425]
336,2026-02-27 04:53:43,[-154.57875457875457|-271.79487179487177|-299.6336996336996|-315.75091575091574|-353.84615384615387]
337,2026-02-27 04:53:43,[-342.85714285714283|-365.56776556776555|-353.84615384615387|-365.56776556776555|-396.3369963369963]
338,2026-02-27 04:53:43,[-322.34432234432234|-334.0659340659341|-317.94871794871796|-300.3663003663004|-314.2857142857143]
339,2026-02-27 04:53:43,[-276.1904761904762|-320.1465201465202|-293.7728937728938|-267.3992673992674|-287.9120879120879]
340,2026-02-27 04:53:43,[-257.87545787545787|-283.5164835164835|-273.992673992674|-290.1098901098901|-318.68131868131866]
341,2026-02-27 04:53:43,[-264.46886446886447|-289.3772893772894|-276.1904761904762|-267.3992673992674|-293.040293040293]
342,2026-02-27 04:53:43,[-258.6080586080586|-306.959706959707|-273.2600732600733|-251.28205128205127|-267.3992673992674]
343,2026-02-27 04:53:43,[-240.2930402930403|-260.0732600732601|-246.15384615384616|-258.6080586080586|-287.9120879120879]
344,2026-02-27 04:53:43,[-226.37362637362637|-239.56043956043956|-226.37362637362637|-214.65201465201466|-228.57142857142858]
345,2026-02-27 04:53:43,[-201.46520146520146|-241.02564102564102|-213.1868131868132|-194.13919413919413|-213.1868131868132]
346,2026-02-27 04:53:43,[-179.48717948717947|-200.0|-182.41758241758242|-191.2087912087912|-213.91941391941393]
347,2026-02-27 04:53:43,[-166.3003663003663|-188.2783882783883|-167.76556776556777|-161.17216117216117|-180.21978021978023]
348,2026-02-27 04:53:43,[-153.1135531135531|-219.04761904761904|-176.55677655677655|-154.57875457875457|-170.6959706959707]
349,2026-02-27 04:53:44,[-134.06593406593407|-155.3113553113553|-147.98534798534797|-167.03296703296704|-191.2087912087912]
350,2026-02-27 04:53:44,[-129.67032967032966|-148.71794871794873|-131.86813186813185|-124.54212454212454|-154.57875457875457]
351,2026-02-27 04:53:44,[-112.82051282051282|-124.54212454212454|-87.17948717948718|-76.19047619047619|-109.89010989010988]
352,2026-02-27 04:53:44,[-106.22710622710623|-154.57875457875457|-145.78754578754578|-161.17216117216117|-188.2783882783883]
353,2026-02-27 04:53:44,[-125.27472527472527|-136.996336996337|-129.67032967032966|-135.53113553113553|-95.97069597069597]
354,2026-02-27 04:53:44,[173.62637362637363|753.8461538461538|1499.6336996336997|1026.3736263736264|-28.571428571428573]
355,2026-02-27 04:53:44,[-565.5677655677656|-433.6996336996337|-200.73260073260073|-114.28571428571429|-120.14652014652015]
356,2026-02-27 04:53:44,[-62.27106227106227|-73.26007326007326|-50.54945054945055|-29.304029304029303|-38.827838827838825]
357,2026-02-27 04:53:44,[-3.663003663003663|-32.967032967032964|5.128205128205129|25.641025641025642|21.978021978021978]
358,2026-02-27 04:53:44,[60.8058608058608|56.41025641025641|88.64468864468864|85.71428571428571|84.24908424908425]
359,2026-02-27 04:53:44,[168.4981684981685|180.95238095238096|230.76923076923077|278.38827838827837|304.02930402930406]
360,2026-02-27 04:53:44,[383.8827838827839|380.2197802197802|450.54945054945057|494.5054945054945|488.64468864468864]
361,2026-02-27 04:53:44,[513.5531135531136|460.8058608058608|427.1062271062271|319.4139194139194|179.48717948717947]
362,2026-02-27 04:53:44,[107.6923076923077|-31.501831501831504|-123.80952380952381|-213.1868131868132|-295.23809523809524]
363,2026-02-27 04:53:44,[-312.0879120879121|-396.3369963369963|-384.61538461538464|-384.61538461538464|-405.12820512820514]
364,2026-02-27 04:53:44,[-378.75457875457874|-393.4065934065934|-371.42857142857144|-380.2197802197802|-402.1978021978022]
365,2026-02-27 04:53:44,[-334.7985347985348|-342.12454212454213|-320.8791208791209|-311.35531135531136|-320.1465201465202]
366,2026-02-27 04:53:44,[-287.1794871794872|-331.86813186813185|-296.7032967032967|-285.7142857142857|-302.56410256410254]
367,2026-02-27 04:53:44,[-271.79487179487177|-299.6336996336996|-285.7142857142857|-301.0989010989011|-334.7985347985348]
368,2026-02-27 04:53:44,[-275.45787545787545|-298.16849816849816|-284.98168498168496|-273.992673992674|-289.3772893772894]
369,2026-02-27 04:53:44,[-261.53846153846155|-305.4945054945055|-274.72527472527474|-261.53846153846155|-276.1904761904762]
370,2026-02-27 04:53:44,[-239.56043956043956|-263.7362637362637|-241.02564102564102|-260.8058608058608|-283.5164835164835]
371,2026-02-27 04:53:44,[-223.44322344322345|-238.0952380952381|-217.58241758241758|-213.1868131868132|-226.37362637362637]
372,2026-02-27 04:53:44,[-195.6043956043956|-242.49084249084248|-212.45421245421247|-194.13919413919413|-201.46520146520146]
373,2026-02-27 04:53:44,[-174.35897435897436|-200.0|-177.28937728937728|-200.0|-227.83882783882783]
374,2026-02-27 04:53:45,[-161.17216117216117|-173.62637362637363|-156.04395604395606|-153.84615384615384|-158.97435897435898]
375,2026-02-27 04:53:45,[-131.13553113553112|-179.48717948717947|-143.5897435897436|-125.27472527472527|-146.5201465201465]
376,2026-02-27 04:53:45,[-110.62271062271063|-131.86813186813185|-120.87912087912088|-134.06593406593407|-158.97435897435898]
377,2026-02-27 04:53:45,[-112.08791208791209|-126.00732600732601|-73.99267399267399|-51.282051282051285|-67.3992673992674]
378,2026-02-27 04:53:45,[-50.54945054945055|-122.34432234432235|-115.01831501831502|-117.94871794871794|-123.07692307692308]
379,2026-02-27 04:53:45,[-87.17948717948718|-113.55311355311355|-94.50549450549451|-119.41391941391942|-165.56776556776558]
380,2026-02-27 04:53:45,[-63.73626373626374|161.17216117216117|876.9230769230769|1499.6336996336997|1309.1575091575091]
381,2026-02-27 04:53:45,[101.83150183150182|-564.8351648351648|-353.84615384615387|-127.47252747252747|-60.8058608058608]
382,2026-02-27 04:53:45,[-31.501831501831504|-56.41025641025641|-30.036630036630036|-41.75824175824176|-54.21245421245421]
383,2026-02-27 04:53:45,[10.989010989010989|3.663003663003663|30.036630036630036|40.29304029304029|40.29304029304029]
384,2026-02-27 04:53:45,[79.85347985347985|50.54945054945055|98.9010989010989|126.73992673992674|127.47252747252747]
385,2026-02-27 04:53:45,[175.0915750915751|178.02197802197801|228.57142857142858|249.8168498168498|261.53846153846155]
386,2026-02-27 04:53:45,[365.56776556776555|396.3369963369963|460.0732600732601|506.959706959707|520.1465201465202]
387,2026-02-27 04:53:45,[567.032967032967|509.8901098901099|520.8791208791209|479.1208791208791|373.6263736263736]
388,2026-02-27 04:53:45,[287.9120879120879|134.06593406593407|25.641025641025642|-120.14652014652015|-238.0952380952381]
389,2026-02-27 04:53:45,[-254.21245421245422|-321.61172161172163|-336.2637362637363|-357.5091575091575|-383.8827838827839]
390,2026-02-27 04:53:45,[-356.7765567765568|-411.72161172161174|-377.2893772893773|-356.7765567765568|-358.97435897435895]
391,2026-02-27 04:53:45,[-325.27472527472526|-346.5201465201465|-320.1465201465202|-336.996336996337|-352.3809523809524]
392,2026-02-27 04:53:45,[-295.23809523809524|-308.42490842490844|-283.5164835164835|-276.1904761904762|-295.23809523809524]
393,2026-02-27 04:53:45,[-263.7362637362637|-310.6227106227106|-282.05128205128204|-273.2600732600733|-290.84249084249086]
394,2026-02-27 04:53:45,[-264.46886446886447|-287.1794871794872|-267.3992673992674|-295.23809523809524|-315.01831501831504]
395,2026-02-27 04:53:45,[-262.27106227106225|-275.45787545787545|-258.6080586080586|-260.0732600732601|-267.3992673992674]
396,2026-02-27 04:53:45,[-238.0952380952381|-290.84249084249086|-243.2234432234432|-230.03663003663004|-243.95604395604394]
397,2026-02-27 04:53:45,[-208.7912087912088|-230.76923076923077|-209.52380952380952|-224.9084249084249|-235.89743589743588]
398,2026-02-27 04:53:45,[-193.4065934065934|-212.45421245421247|-182.41758241758242|-180.95238095238096|-195.6043956043956]
399,2026-02-27 04:53:45,[-161.9047619047619|-229.3040293040293|-182.41758241758242|-164.83516483516485|-173.62637362637363]
400,2026-02-27 04:53:46,[-143.5897435897436|-167.03296703296704|-147.25274725274724|-167.03296703296704|-191.2087912087912]
401,2026-02-27 04:53:46,[-131.13553113553112|-148.71794871794873|-123.07692307692308|-120.14652014652015|-128.2051282051282]
402,2026-02-27 04:53:46,[-103.2967032967033|-144.32234432234432|-113.55311355311355|-113.55311355311355|-122.34432234432235]
403,2026-02-27 04:53:46,[-85.71428571428571|-110.62271062271063|-97.43589743589743|-95.97069597069597|-89.37728937728937]
404,2026-02-27 04:53:46,[-32.967032967032964|-59.34065934065934|-50.54945054945055|-84.98168498168498|-115.01831501831502]
405,2026-02-27 04:53:46,[-85.71428571428571|-129.67032967032966|-95.97069597069597|-87.17948717948718|-94.50549450549451]
406,2026-02-27 04:53:46,[-79.12087912087912|-112.08791208791209|52.747252747252745|456.4102564102564|1388.2783882783883]
407,2026-02-27 04:53:46,[1499.6336996336997|589.010989010989|-347.98534798534797|-500.3663003663004|-249.8168498168498]
408,2026-02-27 04:53:46,[-72.52747252747253|-68.13186813186813|-32.234432234432234|-24.90842490842491|-20.512820512820515]
409,2026-02-27 04:53:46,[18.315018315018314|3.663003663003663|31.501831501831504|16.84981684981685|3.663003663003663]
410,2026-02-27 04:53:46,[73.99267399267399|64.46886446886447|93.04029304029304|107.6923076923077|113.55311355311355]
411,2026-02-27 04:53:46,[160.43956043956044|131.13553113553112|193.4065934065934|224.9084249084249|252.01465201465203]
412,2026-02-27 04:53:46,[322.34432234432234|337.72893772893775|410.2564102564103|430.03663003663|443.2234432234432]
413,2026-02-27 04:53:46,[542.1245421245421|541.3919413919414|561.9047619047619|547.2527472527472|494.5054945054945]
414,2026-02-27 04:53:46,[450.54945054945057|287.9120879120879|200.0|67.3992673992674|-60.8058608058608]
415,2026-02-27 04:53:46,[-134.06593406593407|-242.49084249084248|-274.72527472527474|-343.5897435897436|-387.54578754578756]
416,2026-02-27 04:53:46,[-342.12454212454213|-369.96336996337|-353.84615384615387|-352.3809523809524|-356.7765567765568]
417,2026-02-27 04:53:46,[-323.0769230769231|-365.56776556776555|-323.8095238095238|-314.2857142857143|-317.2161172161172]
418,2026-02-27 04:53:46,[-282.05128205128204|-301.83150183150184|-273.992673992674|-301.0989010989011|-323.0769230769231]
419,2026-02-27 04:53:46,[-270.3296703296703|-290.84249084249086|-263.003663003663|-274.72527472527474|-287.9120879120879]
420,2026-02-27 04:53:46,[-264.46886446886447|-312.8205128205128|-282.05128205128204|-282.05128205128204|-290.1098901098901]
421,2026-02-27 04:53:46,[-258.6080586080586|-293.040293040293|-265.2014652014652|-298.9010989010989|-314.2857142857143]
422,2026-02-27 04:53:46,[-254.94505494505495|-271.79487179487177|-251.28205128205127|-254.21245421245422|-260.0732600732601]
423,2026-02-27 04:53:46,[-227.83882783882783|-284.98168498168496|-246.8864468864469|-240.2930402930403|-242.49084249084248]
424,2026-02-27 04:53:47,[-216.84981684981685|-239.56043956043956|-212.45421245421247|-243.95604395604394|-262.27106227106225]
425,2026-02-27 04:53:47,[-211.7216117216117|-224.17582417582418|-201.46520146520146|-204.3956043956044|-207.32600732600733]
426,2026-02-27 04:53:47,[-180.95238095238096|-235.89743589743588|-191.2087912087912|-183.88278388278388|-201.46520146520146]
427,2026-02-27 04:53:47,[-169.23076923076923|-189.74358974358975|-166.3003663003663|-197.06959706959708|-208.05860805860806]
428,2026-02-27 04:53:47,[-153.1135531135531|-166.3003663003663|-150.1831501831502|-158.97435897435898|-134.06593406593407]
429,2026-02-27 04:53:47,[-88.64468864468864|-142.85714285714286|-112.82051282051282|-123.80952380952381|-166.3003663003663]
430,2026-02-27 04:53:47,[-153.84615384615384|-173.62637362637363|-145.78754578754578|-170.6959706959707|-194.13919413919413]
431,2026-02-27 04:53:47,[-135.53113553113553|-167.03296703296704|-130.4029304029304|32.967032967032964|501.83150183150184]
432,2026-02-27 04:53:47,[1496.7032967032967|1421.978021978022|314.2857142857143|-500.3663003663004|-531.8681318681319]
433,2026-02-27 04:53:47,[-249.8168498168498|-142.12454212454213|-73.99267399267399|-100.36630036630036|-117.94871794871794]
434,2026-02-27 04:53:47,[-53.47985347985348|-59.34065934065934|-25.641025641025642|-27.83882783882784|-21.245421245421245]
435,2026-02-27 04:53:47,[15.384615384615385|-24.175824175824175|22.71062271062271|41.02564102564103|52.014652014652015]
436,2026-02-27 04:53:47,[87.91208791208791|82.05128205128206|131.86813186813185|123.80952380952381|137.72893772893772]
437,2026-02-27 04:53:47,[229.3040293040293|249.8168498168498|320.1465201465202|356.7765567765568|395.6043956043956]
438,2026-02-27 04:53:47,[465.2014652014652|447.6190476190476|509.15750915750914|507.6923076923077|478.38827838827837]
439,2026-02-27 04:53:47,[454.2124542124542|345.05494505494505|257.14285714285717|100.36630036630036|-48.35164835164835]
440,2026-02-27 04:53:47,[-99.63369963369964|-211.7216117216117|-260.0732600732601|-317.94871794871796|-358.24175824175825]
441,2026-02-27 04:53:47,[-356.7765567765568|-424.1758241758242|-391.94139194139194|-390.4761904761905|-391.2087912087912]
442,2026-02-27 04:53:47,[-355.3113553113553|-368.4981684981685|-339.9267399267399|-361.17216117216117|-365.56776556776555]
443,2026-02-27 04:53:47,[-311.35531135531136|-328.93772893772893|-298.9010989010989|-298.9010989010989|-299.6336996336996]
444,2026-02-27 04:53:47,[-270.3296703296703|-310.6227106227106|-273.2600732600733|-284.98168498168496|-286.4468864468864]
445,2026-02-27 04:53:47,[-260.0732600732601|-295.97069597069594|-271.79487179487177|-306.959706959707|-330.4029304029304]
446,2026-02-27 04:53:47,[-265.9340659340659|-287.9120879120879|-263.003663003663|-273.2600732600733|-272.5274725274725]
447,2026-02-27 04:53:47,[-246.8864468864469|-290.84249084249086|-246.8864468864469|-243.2234432234432|-247.61904761904762]
448,2026-02-27 04:53:47,[-215.3846153846154|-239.56043956043956|-214.65201465201466|-242.49084249084248|-258.6080586080586]
449,2026-02-27 04:53:48,[-204.3956043956044|-216.84981684981685|-189.01098901098902|-200.0|-199.26739926739927]
450,2026-02-27 04:53:48,[-172.16117216117217|-219.78021978021977|-178.02197802197801|-179.48717948717947|-182.41758241758242]
451,2026-02-27 04:53:48,[-158.24175824175825|-177.28937728937728|-150.1831501831502|-188.2783882783883|-202.1978021978022]
452,2026-02-27 04:53:48,[-141.3919413919414|-158.97435897435898|-134.06593406593407|-141.3919413919414|-144.32234432234432]
453,2026-02-27 04:53:48,[-118.68131868131869|-161.9047619047619|-123.80952380952381|-123.80952380952381|-124.54212454212454]
454,2026-02-27 04:53:48,[-103.2967032967033|-131.13553113553112|-102.56410256410257|-131.13553113553112|-142.85714285714286]
455,2026-02-27 04:53:48,[-100.36630036630036|-115.01831501831502|-59.34065934065934|-47.61904761904762|-49.08424908424909]
456,2026-02-27 04:53:48,[-38.095238095238095|-109.89010989010988|-97.43589743589743|-107.6923076923077|-109.15750915750915]
457,2026-02-27 04:53:48,[-77.65567765567765|-106.22710622710623|-78.3882783882784|-118.68131868131869|-157.50915750915752]
458,2026-02-27 04:53:48,[-71.06227106227107|161.9047619047619|911.3553113553113|1499.6336996336997|1329.6703296703297]
459,2026-02-27 04:53:48,[111.35531135531136|-566.3003663003662|-323.8095238095238|-110.62271062271063|-37.362637362637365]
460,2026-02-27 04:53:48,[-15.384615384615385|-50.54945054945055|-14.652014652014651|-32.967032967032964|-37.362637362637365]
461,2026-02-27 04:53:48,[37.362637362637365|31.501831501831504|72.52747252747253|68.86446886446886|78.3882783882784]
462,2026-02-27 04:53:48,[116.48351648351648|89.37728937728937|137.72893772893772|156.04395604395606|179.48717948717947]
463,2026-02-27 04:53:48,[221.97802197802199|228.57142857142858|288.64468864468864|290.1098901098901|315.75091575091574]
464,2026-02-27 04:53:48,[419.04761904761904|454.2124542124542|523.8095238095239|550.1831501831501|573.6263736263736]
465,2026-02-27 04:53:48,[603.6630036630037|538.4615384615385|556.7765567765567|500.3663003663004|414.65201465201466]
466,2026-02-27 04:53:48,[321.61172161172163|172.16117216117217|76.19047619047619|-64.46886446886447|-166.3003663003663]
467,2026-02-27 04:53:48,[-183.15018315018315|-248.35164835164835|-252.01465201465203|-284.24908424908426|-295.97069597069594]
468,2026-02-27 04:53:48,[-283.5164835164835|-329.6703296703297|-298.16849816849816|-298.16849816849816|-287.1794871794872]
469,2026-02-27 04:53:48,[-254.21245421245422|-276.1904761904762|-251.28205128205127|-286.4468864468864|-295.23809523809524]
470,2026-02-27 04:53:48,[-246.15384615384616|-254.21245421245422|-230.76923076923077|-244.6886446886447|-243.95604395604394]
471,2026-02-27 04:53:48,[-228.57142857142858|-274.72527472527474|-241.02564102564102|-249.8168498168498|-249.08424908424908]
472,2026-02-27 04:53:48,[-238.0952380952381|-254.21245421245422|-238.82783882783883|-283.5164835164835|-289.3772893772894]
473,2026-02-27 04:53:49,[-238.0952380952381|-260.8058608058608|-238.0952380952381|-241.02564102564102|-243.2234432234432]
474,2026-02-27 04:53:49,[-224.9084249084249|-264.46886446886447|-229.3040293040293|-228.57142857142858|-227.1062271062271]
475,2026-02-27 04:53:49,[-212.45421245421247|-223.44322344322345|-197.06959706959708|-237.36263736263737|-246.8864468864469]
476,2026-02-27 04:53:49,[-194.13919413919413|-202.93040293040292|-172.16117216117217|-182.41758241758242|-190.47619047619048]
477,2026-02-27 04:53:49,[-169.96336996336996|-208.7912087912088|-169.96336996336996|-173.62637362637363|-169.96336996336996]
478,2026-02-27 04:53:49,[-158.97435897435898|-176.55677655677655|-156.04395604395606|-188.2783882783883|-194.13919413919413]
479,2026-02-27 04:53:49,[-152.38095238095238|-160.43956043956044|-141.3919413919414|-146.5201465201465|-147.25274725274724]
480,2026-02-27 04:53:49,[-135.53113553113553|-150.91575091575092|-87.17948717948718|-95.97069597069597|-106.22710622710623]
481,2026-02-27 04:53:49,[-100.36630036630036|-153.1135531135531|-142.85714285714286|-173.62637362637363|-182.41758241758242]
482,2026-02-27 04:53:49,[-134.06593406593407|-142.85714285714286|-125.27472527472527|-155.3113553113553|-122.34432234432235]
483,2026-02-27 04:53:49,[76.92307692307692|521.6117216117216|1293.0402930402931|1052.7472527472528|134.06593406593407]
484,2026-02-27 04:53:49,[-506.2271062271062|-507.6923076923077|-254.21245421245422|-167.03296703296704|-141.3919413919414]
485,2026-02-27 04:53:49,[-97.43589743589743|-106.22710622710623|-75.45787545787546|-76.19047619047619|-66.66666666666667]
486,2026-02-27 04:53:49,[-42.49084249084249|-75.45787545787546|-27.106227106227106|-28.571428571428573|-17.582417582417584]
487,2026-02-27 04:53:49,[15.384615384615385|8.058608058608058|44.688644688644686|22.71062271062271|37.362637362637365]
488,2026-02-27 04:53:49,[104.76190476190476|115.01831501831502|175.0915750915751|205.12820512820514|249.8168498168498]
489,2026-02-27 04:53:49,[308.42490842490844|304.02930402930406|380.95238095238096|403.6630036630037|425.64102564102564]
490,2026-02-27 04:53:49,[438.0952380952381|392.6739926739927|361.17216117216117|238.0952380952381|115.75091575091575]
491,2026-02-27 04:53:49,[40.29304029304029|-94.50549450549451|-170.6959706959707|-271.06227106227107|-329.6703296703297]
492,2026-02-27 04:53:49,[-353.84615384615387|-423.4432234432234|-403.6630036630037|-422.7106227106227|-424.1758241758242]
493,2026-02-27 04:53:49,[-409.5238095238095|-425.64102564102564|-393.4065934065934|-413.1868131868132|-401.46520146520146]
494,2026-02-27 04:53:49,[-362.6373626373626|-370.6959706959707|-344.32234432234435|-345.7875457875458|-335.53113553113553]
495,2026-02-27 04:53:49,[-312.8205128205128|-345.7875457875458|-308.42490842490844|-312.8205128205128|-306.959706959707]
496,2026-02-27 04:53:49,[-289.3772893772894|-311.35531135531136|-293.7728937728938|-336.2637362637363|-365.56776556776555]
497,2026-02-27 04:53:49,[-299.6336996336996|-305.4945054945055|-287.9120879120879|-296.7032967032967|-287.1794871794872]
498,2026-02-27 04:53:49,[-271.06227106227107|-310.6227106227106|-268.13186813186815|-273.992673992674|-267.3992673992674]
499,2026-02-27 04:53:50,[-246.8864468864469|-261.53846153846155|-229.3040293040293|-264.46886446886447|-271.79487179487177]
500,2026-02-27 04:53:50,[-226.37362637362637|-235.16483516483515|-208.05860805860806|-220.51282051282053|-211.7216117216117]
501,2026-02-27 04:53:50,[-195.6043956043956|-237.36263736263737|-200.0|-200.0|-193.4065934065934]
502,2026-02-27 04:53:50,[-175.0915750915751|-191.2087912087912|-164.10256410256412|-201.46520146520146|-206.5934065934066]
503,2026-02-27 04:53:50,[-161.17216117216117|-170.6959706959707|-145.05494505494505|-160.43956043956044|-149.45054945054946]
504,2026-02-27 04:53:50,[-132.6007326007326|-178.02197802197801|-135.53113553113553|-136.996336996337|-127.47252747252747]
505,2026-02-27 04:53:50,[-109.15750915750915|-123.80952380952381|-102.56410256410257|-144.32234432234432|-125.27472527472527]
506,2026-02-27 04:53:50,[-56.41025641025641|-70.32967032967034|-56.41025641025641|-84.24908424908425|-102.56410256410257]
507,2026-02-27 04:53:50,[-101.83150183150182|-147.25274725274724|-101.83150183150182|-109.15750915750915|-98.9010989010989]
508,2026-02-27 04:53:50,[-80.58608058608058|-125.27472527472527|-95.97069597069597|63.73626373626374|607.3260073260074]
509,2026-02-27 04:53:50,[1499.6336996336997|1499.6336996336997|324.54212454212455|-486.4468864468864|-412.45421245421244]
510,2026-02-27 04:53:50,[-150.1831501831502|-90.10989010989012|-37.362637362637365|-53.47985347985348|-40.29304029304029]
511,2026-02-27 04:53:50,[-15.384615384615385|-25.641025641025642|16.84981684981685|-13.91941391941392|-13.186813186813186]
512,2026-02-27 04:53:50,[43.223443223443226|40.29304029304029|72.52747252747253|66.66666666666667|84.24908424908425]
513,2026-02-27 04:53:50,[115.01831501831502|93.04029304029304|153.84615384615384|172.8937728937729|210.25641025641025]
514,2026-02-27 04:53:50,[258.6080586080586|279.1208791208791|347.25274725274727|356.7765567765568|396.3369963369963]
515,2026-02-27 04:53:50,[484.98168498168496|501.83150183150184|542.8571428571429|523.8095238095239|512.8205128205128]
516,2026-02-27 04:53:50,[479.1208791208791|355.3113553113553|276.1904761904762|139.9267399267399|19.78021978021978]
517,2026-02-27 04:53:50,[-79.85347985347985|-191.2087912087912|-239.56043956043956|-331.86813186813185|-364.1025641025641]
518,2026-02-27 04:53:50,[-343.5897435897436|-368.4981684981685|-347.98534798534797|-364.1025641025641|-356.7765567765568]
519,2026-02-27 04:53:50,[-342.12454212454213|-370.6959706959707|-326.007326007326|-324.54212454212455|-314.2857142857143]
520,2026-02-27 04:53:50,[-298.16849816849816|-309.8901098901099|-277.65567765567766|-314.2857142857143|-313.5531135531136]
521,2026-02-27 04:53:50,[-271.79487179487177|-284.98168498168496|-260.0732600732601|-277.65567765567766|-267.3992673992674]
522,2026-02-27 04:53:50,[-258.6080586080586|-298.16849816849816|-261.53846153846155|-275.45787545787545|-265.2014652014652]
523,2026-02-27 04:53:50,[-261.53846153846155|-273.992673992674|-249.08424908424908|-290.84249084249086|-290.1098901098901]
524,2026-02-27 04:53:51,[-243.95604395604394|-252.01465201465203|-224.9084249084249|-237.36263736263737|-226.37362637362637]
525,2026-02-27 04:53:51,[-208.7912087912088|-250.54945054945054|-211.7216117216117|-220.51282051282053|-207.32600732600733]
526,2026-02-27 04:53:51,[-191.2087912087912|-208.7912087912088|-180.95238095238096|-216.11721611721612|-215.3846153846154]
527,2026-02-27 04:53:51,[-169.96336996336996|-182.41758241758242|-156.04395604395606|-170.6959706959707|-161.9047619047619]
528,2026-02-27 04:53:51,[-154.57875457875457|-194.13919413919413|-148.71794871794873|-157.50915750915752|-145.78754578754578]
529,2026-02-27 04:53:51,[-131.13553113553112|-152.38095238095238|-125.27472527472527|-164.83516483516485|-164.83516483516485]
530,2026-02-27 04:53:51,[-121.6117216117216|-131.13553113553112|-105.49450549450549|-121.6117216117216|-109.15750915750915]
531,2026-02-27 04:53:51,[-99.63369963369964|-136.996336996337|-94.50549450549451|-106.22710622710623|-96.7032967032967]
532,2026-02-27 04:53:51,[-80.58608058608058|-100.36630036630036|-73.99267399267399|-110.62271062271063|-110.62271062271063]
533,2026-02-27 04:53:51,[-73.26007326007326|-78.3882783882784|-60.8058608058608|-60.07326007326007|-25.641025641025642]
534,2026-02-27 04:53:51,[-2.93040293040293|-51.282051282051285|-30.76923076923077|-71.06227106227107|-79.12087912087912]
535,2026-02-27 04:53:51,[-75.45787545787546|-79.85347985347985|-54.94505494505494|-99.63369963369964|-101.83150183150182]
536,2026-02-27 04:53:51,[-63.73626373626374|-98.9010989010989|30.036630036630036|393.4065934065934|1309.1575091575091]
537,2026-02-27 04:53:51,[1499.6336996336997|753.8461538461538|-224.9084249084249|-493.040293040293|-214.65201465201466]
538,2026-02-27 04:53:51,[-55.67765567765568|-25.641025641025642|5.128205128205129|-38.095238095238095|-31.501831501831504]
539,2026-02-27 04:53:51,[19.78021978021978|15.384615384615385|41.75824175824176|34.43223443223443|56.41025641025641]
540,2026-02-27 04:53:51,[69.59706959706959|46.15384615384615|91.57509157509158|93.04029304029304|123.80952380952381]
541,2026-02-27 04:53:51,[147.25274725274724|149.45054945054946|196.33699633699635|183.88278388278388|213.91941391941393]
542,2026-02-27 04:53:51,[287.1794871794872|324.54212454212455|389.7435897435897|415.38461538461536|472.5274725274725]
543,2026-02-27 04:53:51,[515.7509157509157|494.5054945054945|541.3919413919414|513.5531135531136|499.6336996336996]
544,2026-02-27 04:53:51,[444.6886446886447|333.3333333333333|233.6996336996337|62.27106227106227|-56.41025641025641]
545,2026-02-27 04:53:51,[-122.34432234432235|-211.7216117216117|-251.28205128205127|-311.35531135531136|-325.27472527472526]
546,2026-02-27 04:53:51,[-334.0659340659341|-387.54578754578756|-347.25274725274727|-356.04395604395603|-343.5897435897436]
547,2026-02-27 04:53:51,[-325.27472527472526|-334.7985347985348|-305.4945054945055|-337.72893772893775|-332.6007326007326]
548,2026-02-27 04:53:51,[-289.3772893772894|-295.23809523809524|-267.3992673992674|-283.5164835164835|-267.3992673992674]
549,2026-02-27 04:53:51,[-261.53846153846155|-304.02930402930406|-265.9340659340659|-277.65567765567766|-266.6666666666667]
550,2026-02-27 04:53:52,[-264.46886446886447|-284.24908424908426|-263.003663003663|-308.42490842490844|-302.56410256410254]
551,2026-02-27 04:53:52,[-266.6666666666667|-276.1904761904762|-252.01465201465203|-267.3992673992674|-255.67765567765568]
552,2026-02-27 04:53:52,[-243.95604395604394|-282.7838827838828|-241.02564102564102|-255.67765567765568|-238.82783882783883]
553,2026-02-27 04:53:52,[-221.97802197802199|-241.75824175824175|-215.3846153846154|-254.94505494505495|-254.94505494505495]
554,2026-02-27 04:53:52,[-217.58241758241758|-216.11721611721612|-200.0|-216.11721611721612|-200.0]
555,2026-02-27 04:53:52,[-191.2087912087912|-230.03663003663004|-194.13919413919413|-204.3956043956044|-190.47619047619048]
556,2026-02-27 04:53:52,[-179.48717948717947|-188.2783882783883|-164.83516483516485|-206.5934065934066|-203.66300366300365]
557,2026-02-27 04:53:52,[-169.96336996336996|-176.55677655677655|-155.3113553113553|-173.62637362637363|-158.24175824175825]
558,2026-02-27 04:53:52,[-153.1135531135531|-189.74358974358975|-149.45054945054946|-156.04395604395606|-142.85714285714286]
559,2026-02-27 04:53:52,[-134.06593406593407|-147.25274725274724|-125.27472527472527|-166.3003663003663|-169.23076923076923]
560,2026-02-27 04:53:52,[-117.94871794871794|-97.43589743589743|-67.3992673992674|-98.9010989010989|-98.9010989010989]
561,2026-02-27 04:53:52,[-119.41391941391942|-179.48717948717947|-145.78754578754578|-148.71794871794873|-131.86813186813185]
562,2026-02-27 04:53:52,[-131.13553113553112|-147.25274725274724|-120.87912087912088|-170.6959706959707|-73.99267399267399]
563,2026-02-27 04:53:52,[285.7142857142857|1024.9084249084249|1499.6336996336997|630.7692307692307|-258.6080586080586]
564,2026-02-27 04:53:52,[-569.2307692307693|-365.56776556776555|-161.9047619047619|-106.22710622710623|-76.92307692307692]
565,2026-02-27 04:53:52,[-72.52747252747253|-76.92307692307692|-41.02564102564103|-73.99267399267399|-60.8058608058608]
566,2026-02-27 04:53:52,[-15.384615384615385|-12.454212454212454|21.245421245421245|10.989010989010989|37.362637362637365]
567,2026-02-27 04:53:52,[53.47985347985348|29.304029304029303|84.98168498168498|91.57509157509158|128.2051282051282]
568,2026-02-27 04:53:52,[161.17216117216117|180.95238095238096|241.75824175824175|243.2234432234432|287.9120879120879]
569,2026-02-27 04:53:52,[359.7069597069597|404.3956043956044|452.74725274725273|455.67765567765565|485.7142857142857]
570,2026-02-27 04:53:52,[476.1904761904762|404.3956043956044|379.4871794871795|273.2600732600733|172.16117216117217]
571,2026-02-27 04:53:52,[53.47985347985348|-75.45787545787546|-154.57875457875457|-277.65567765567766|-331.86813186813185]
572,2026-02-27 04:53:52,[-343.5897435897436|-381.68498168498166|-369.2307692307692|-401.46520146520146|-387.54578754578756]
573,2026-02-27 04:53:52,[-380.2197802197802|-401.46520146520146|-355.3113553113553|-360.43956043956047|-342.12454212454213]
574,2026-02-27 04:53:53,[-328.93772893772893|-336.2637362637363|-303.2967032967033|-343.5897435897436|-334.0659340659341]
575,2026-02-27 04:53:53,[-297.43589743589746|-295.23809523809524|-270.3296703296703|-295.23809523809524|-274.72527472527474]
576,2026-02-27 04:53:53,[-276.1904761904762|-317.2161172161172|-286.4468864468864|-298.16849816849816|-284.98168498168496]
577,2026-02-27 04:53:53,[-283.5164835164835|-290.84249084249086|-266.6666666666667|-301.0989010989011|-288.64468864468864]
578,2026-02-27 04:53:53,[-266.6666666666667|-275.45787545787545|-246.8864468864469|-264.46886446886447|-246.8864468864469]
579,2026-02-27 04:53:53,[-244.6886446886447|-301.0989010989011|-243.95604395604394|-246.8864468864469|-221.24542124542126]
580,2026-02-27 04:53:53,[-219.04761904761904|-227.83882783882783|-201.46520146520146|-243.95604395604394|-238.0952380952381]
581,2026-02-27 04:53:53,[-202.93040293040292|-207.32600732600733|-179.48717948717947|-199.26739926739927|-176.55677655677655]
582,2026-02-27 04:53:53,[-176.55677655677655|-207.32600732600733|-169.23076923076923|-182.41758241758242|-160.43956043956044]
583,2026-02-27 04:53:53,[-159.7069597069597|-168.4981684981685|-142.85714285714286|-178.02197802197801|-169.23076923076923]
584,2026-02-27 04:53:53,[-147.25274725274724|-155.3113553113553|-123.80952380952381|-144.32234432234432|-125.27472527472527]
585,2026-02-27 04:53:53,[-119.41391941391942|-160.43956043956044|-119.41391941391942|-126.73992673992674|-112.08791208791209]
586,2026-02-27 04:53:53,[-110.62271062271063|-117.94871794871794|-90.10989010989012|-126.73992673992674|-112.08791208791209]
587,2026-02-27 04:53:53,[-98.9010989010989|-78.3882783882784|-35.8974358974359|-53.47985347985348|-54.21245421245421]
588,2026-02-27 04:53:53,[-65.2014652014652|-127.47252747252747|-109.15750915750915|-119.41391941391942|-90.10989010989012]
589,2026-02-27 04:53:53,[-94.50549450549451|-101.83150183150182|-76.92307692307692|-156.04395604395606|-157.50915750915752]
590,2026-02-27 04:53:53,[85.71428571428571|654.2124542124542|1499.6336996336997|1487.179487179487|301.0989010989011]
591,2026-02-27 04:53:53,[-475.45787545787545|-425.64102564102564|-147.25274725274724|-63.73626373626374|-32.967032967032964]
592,2026-02-27 04:53:53,[-41.02564102564103|-47.61904761904762|-13.91941391941392|-47.61904761904762|-29.304029304029303]
593,2026-02-27 04:53:53,[13.91941391941392|19.78021978021978|46.15384615384615|32.967032967032964|69.59706959706959]
594,2026-02-27 04:53:53,[73.99267399267399|57.875457875457876|112.08791208791209|115.01831501831502|154.57875457875457]
595,2026-02-27 04:53:53,[180.95238095238096|203.66300366300365|259.34065934065933|252.74725274725276|308.42490842490844]
596,2026-02-27 04:53:53,[380.95238095238096|419.7802197802198|485.7142857142857|491.57509157509156|525.2747252747253]
597,2026-02-27 04:53:53,[526.7399267399268|475.45787545787545|465.2014652014652|374.35897435897436|293.7728937728938]
598,2026-02-27 04:53:53,[168.4981684981685|32.234432234432234|-62.27106227106227|-205.86080586080587|-271.79487179487177]
599,2026-02-27 04:53:54,[-299.6336996336996|-342.85714285714283|-345.05494505494505|-380.2197802197802|-362.6373626373626]
600,2026-02-27 04:53:54,[-369.96336996337|-402.1978021978022|-359.7069597069597|-364.83516483516485|-341.3919413919414]
601,2026-02-27 04:53:54,[-333.3333333333333|-334.7985347985348|-307.6923076923077|-342.85714285714283|-331.13553113553115]
602,2026-02-27 04:53:54,[-297.43589743589746|-298.9010989010989|-277.65567765567766|-297.43589743589746|-267.3992673992674]
603,2026-02-27 04:53:54,[-274.72527472527474|-309.15750915750914|-276.9230769230769|-290.84249084249086|-272.5274725274725]
604,2026-02-27 04:53:54,[-277.65567765567766|-286.4468864468864|-263.003663003663|-306.959706959707|-299.6336996336996]
605,2026-02-27 04:53:54,[-271.79487179487177|-265.9340659340659|-243.2234432234432|-263.003663003663|-230.76923076923077]
606,2026-02-27 04:53:54,[-228.57142857142858|-259.34065934065933|-217.58241758241758|-235.89743589743588|-209.52380952380952]
607,2026-02-27 04:53:54,[-208.7912087912088|-214.65201465201466|-191.2087912087912|-239.56043956043956|-224.9084249084249]
608,2026-02-27 04:53:54,[-196.33699633699635|-194.13919413919413|-169.23076923076923|-183.88278388278388|-160.43956043956044]
609,2026-02-27 04:53:54,[-169.23076923076923|-196.33699633699635|-158.24175824175825|-166.3003663003663|-144.32234432234432]
610,2026-02-27 04:53:54,[-144.32234432234432|-152.38095238095238|-131.13553113553112|-176.55677655677655|-164.10256410256412]
611,2026-02-27 04:53:54,[-131.86813186813185|-126.73992673992674|-103.2967032967033|-134.06593406593407|-112.08791208791209]
612,2026-02-27 04:53:54,[-110.62271062271063|-132.6007326007326|-96.7032967032967|-111.35531135531136|-88.64468864468864]
613,2026-02-27 04:53:54,[-87.91208791208791|-90.10989010989012|-71.06227106227107|-115.75091575091575|-101.83150183150182]
614,2026-02-27 04:53:54,[-87.91208791208791|-75.45787545787546|-26.373626373626372|-33.6996336996337|-16.84981684981685]
615,2026-02-27 04:53:54,[-36.63003663003663|-90.10989010989012|-81.31868131868131|-98.9010989010989|-73.99267399267399]
616,2026-02-27 04:53:54,[-71.06227106227107|-71.7948717948718|-55.67765567765568|-103.2967032967033|-112.82051282051282]
617,2026-02-27 04:53:54,[-13.91941391941392|285.7142857142857|1063.003663003663|1499.6336996336997|957.5091575091575]
618,2026-02-27 04:53:54,[-90.10989010989012|-553.1135531135532|-289.3772893772894|-117.94871794871794|-21.245421245421245]
619,2026-02-27 04:53:54,[-17.582417582417584|-24.90842490842491|8.791208791208792|-27.106227106227106|-8.058608058608058]
620,2026-02-27 04:53:54,[25.641025641025642|38.095238095238095|66.66666666666667|52.014652014652015|84.24908424908425]
621,2026-02-27 04:53:54,[90.10989010989012|74.72527472527473|120.87912087912088|123.80952380952381|163.36996336996336]
622,2026-02-27 04:53:54,[180.95238095238096|200.0|252.01465201465203|249.8168498168498|297.43589743589746]
623,2026-02-27 04:53:54,[368.4981684981685|412.45421245421244|474.72527472527474|486.4468864468864|532.6007326007326]
624,2026-02-27 04:53:54,[536.2637362637363|503.2967032967033|506.2271062271062|429.3040293040293|365.56776556776555]
625,2026-02-27 04:53:55,[243.2234432234432|110.62271062271063|15.384615384615385|-136.996336996337|-213.1868131868132]
626,2026-02-27 04:53:55,[-258.6080586080586|-299.6336996336996|-312.0879120879121|-347.98534798534797|-341.3919413919414]
627,2026-02-27 04:53:55,[-352.3809523809524|-378.75457875457874|-341.3919413919414|-349.45054945054943|-321.61172161172163]
628,2026-02-27 04:53:55,[-320.1465201465202|-318.68131868131866|-286.4468864468864|-324.54212454212455|-317.2161172161172]
629,2026-02-27 04:53:55,[-288.64468864468864|-277.65567765567766|-260.0732600732601|-286.4468864468864|-264.46886446886447]
630,2026-02-27 04:53:55,[-274.72527472527474|-305.4945054945055|-282.05128205128204|-295.23809523809524|-273.2600732600733]
631,2026-02-27 04:53:55,[-285.7142857142857|-289.3772893772894|-271.79487179487177|-317.2161172161172|-299.6336996336996]
632,2026-02-27 04:53:55,[-282.05128205128204|-276.1904761904762|-255.67765567765568|-273.2600732600733|-248.35164835164835]
633,2026-02-27 04:53:55,[-261.53846153846155|-283.5164835164835|-246.8864468864469|-252.74725274725276|-225.64102564102564]
634,2026-02-27 04:53:55,[-236.63003663003664|-241.02564102564102|-217.58241758241758|-258.6080586080586|-247.61904761904762]
635,2026-02-27 04:53:55,[-224.9084249084249|-219.04761904761904|-204.3956043956044|-217.58241758241758|-200.0]
636,2026-02-27 04:53:55,[-205.12820512820514|-220.51282051282053|-191.2087912087912|-205.86080586080587|-177.28937728937728]
637,2026-02-27 04:53:55,[-179.48717948717947|-189.74358974358975|-169.23076923076923|-209.52380952380952|-197.06959706959708]
638,2026-02-27 04:53:55,[-173.62637362637363|-169.96336996336996|-154.57875457875457|-174.35897435897436|-148.71794871794873]
639,2026-02-27 04:53:55,[-154.57875457875457|-182.41758241758242|-150.1831501831502|-132.6007326007326|-97.43589743589743]
640,2026-02-27 04:53:55,[-103.2967032967033|-115.01831501831502|-115.01831501831502|-191.2087912087912|-189.74358974358975]
641,2026-02-27 04:53:55,[-164.83516483516485|-156.04395604395606|-142.12454212454213|-160.43956043956044|-135.53113553113553]
642,2026-02-27 04:53:55,[-154.57875457875457|-133.33333333333334|120.87912087912088|693.7728937728938|1499.6336996336997]
643,2026-02-27 04:53:55,[1076.923076923077|38.095238095238095|-565.5677655677656|-463.003663003663|-214.65201465201466]
644,2026-02-27 04:53:55,[-112.08791208791209|-85.71428571428571|-74.72527472527473|-97.43589743589743|-60.8058608058608]
645,2026-02-27 04:53:55,[-53.47985347985348|-99.63369963369964|-47.61904761904762|-34.43223443223443|4.395604395604396]
646,2026-02-27 04:53:55,[5.86080586080586|16.117216117216117|49.81684981684982|22.71062271062271|44.688644688644686]
647,2026-02-27 04:53:55,[84.24908424908425|115.01831501831502|157.50915750915752|164.83516483516485|221.97802197802199]
648,2026-02-27 04:53:55,[255.67765567765568|274.72527472527474|350.9157509157509|384.61538461538464|441.75824175824175]
649,2026-02-27 04:53:56,[463.003663003663|473.992673992674|484.98168498168496|409.5238095238095|371.42857142857144]
650,2026-02-27 04:53:56,[302.56410256410254|198.53479853479854|88.64468864468864|-55.67765567765568|-132.6007326007326]
651,2026-02-27 04:53:56,[-229.3040293040293|-317.2161172161172|-331.86813186813185|-380.2197802197802|-369.2307692307692]
652,2026-02-27 04:53:56,[-394.87179487179486|-400.73260073260076|-378.75457875457874|-415.38461538461536|-401.46520146520146]
653,2026-02-27 04:53:56,[-369.2307692307692|-355.3113553113553|-331.86813186813185|-342.12454212454213|-308.42490842490844]
654,2026-02-27 04:53:56,[-317.2161172161172|-334.7985347985348|-299.6336996336996|-309.8901098901099|-286.4468864468864]
655,2026-02-27 04:53:56,[-293.7728937728938|-293.7728937728938|-276.1904761904762|-321.61172161172163|-315.01831501831504]
656,2026-02-27 04:53:56,[-301.0989010989011|-290.84249084249086|-274.72527472527474|-294.5054945054945|-270.3296703296703]
657,2026-02-27 04:53:56,[-283.5164835164835|-299.6336996336996|-264.46886446886447|-282.05128205128204|-253.4798534798535]
658,2026-02-27 04:53:56,[-261.53846153846155|-254.21245421245422|-237.36263736263737|-276.1904761904762|-265.9340659340659]
659,2026-02-27 04:53:56,[-248.35164835164835|-239.56043956043956|-219.04761904761904|-238.0952380952381|-208.05860805860806]
660,2026-02-27 04:53:56,[-214.65201465201466|-230.76923076923077|-202.93040293040292|-214.65201465201466|-183.88278388278388]
661,2026-02-27 04:53:56,[-192.67399267399267|-190.47619047619048|-171.42857142857142|-202.93040293040292|-179.48717948717947]
662,2026-02-27 04:53:56,[-178.02197802197801|-166.3003663003663|-146.5201465201465|-167.76556776556777|-136.26373626373626]
663,2026-02-27 04:53:56,[-145.78754578754578|-182.41758241758242|-148.71794871794873|-148.71794871794873|-119.41391941391942]
664,2026-02-27 04:53:56,[-128.2051282051282|-123.80952380952381|-105.49450549450549|-147.25274725274724|-136.996336996337]
665,2026-02-27 04:53:56,[-103.2967032967033|-72.52747252747253|-43.223443223443226|-72.52747252747253|-60.8058608058608]
666,2026-02-27 04:53:56,[-88.64468864468864|-136.26373626373626|-113.55311355311355|-122.34432234432235|-95.23809523809524]
667,2026-02-27 04:53:56,[-107.6923076923077|-101.83150183150182|-90.10989010989012|-154.57875457875457|-50.54945054945055]
668,2026-02-27 04:53:56,[322.34432234432234|1215.3846153846155|1499.6336996336997|783.8827838827839|-216.11721611721612]
669,2026-02-27 04:53:56,[-524.5421245421245|-274.72527472527474|-98.9010989010989|-51.282051282051285|-29.304029304029303]
670,2026-02-27 04:53:56,[-43.956043956043956|-37.362637362637365|-7.326007326007326|-37.362637362637365|-18.315018315018314]
671,2026-02-27 04:53:56,[7.326007326007326|22.71062271062271|54.94505494505494|45.42124542124542|84.24908424908425]
672,2026-02-27 04:53:56,[84.98168498168498|76.92307692307692|124.54212454212454|133.33333333333334|180.21978021978023]
673,2026-02-27 04:53:56,[195.6043956043956|232.96703296703296|280.5860805860806|281.31868131868134|342.12454212454213]
674,2026-02-27 04:53:57,[403.6630036630037|456.4102564102564|501.83150183150184|500.3663003663004|533.3333333333334]
675,2026-02-27 04:53:57,[511.35531135531136|453.4798534798535|416.1172161172161|309.8901098901099|216.11721611721612]
676,2026-02-27 04:53:57,[81.31868131868131|-32.967032967032964|-123.80952380952381|-251.28205128205127|-296.7032967032967]
677,2026-02-27 04:53:57,[-322.34432234432234|-334.7985347985348|-337.72893772893775|-361.9047619047619|-337.72893772893775]
678,2026-02-27 04:53:57,[-346.5201465201465|-358.97435897435895|-326.007326007326|-334.7985347985348|-298.16849816849816]
679,2026-02-27 04:53:57,[-302.56410256410254|-296.7032967032967|-274.72527472527474|-287.9120879120879|-259.34065934065933]
680,2026-02-27 04:53:57,[-271.06227106227107|-260.0732600732601|-248.35164835164835|-266.6666666666667|-246.8864468864469]
681,2026-02-27 04:53:57,[-261.53846153846155|-271.79487179487177|-249.8168498168498|-267.3992673992674|-243.2234432234432]
682,2026-02-27 04:53:57,[-259.34065934065933|-248.35164835164835|-236.63003663003664|-287.1794871794872|-293.040293040293]
683,2026-02-27 04:53:57,[-257.87545787545787|-236.63003663003664|-223.44322344322345|-238.0952380952381|-206.5934065934066]
684,2026-02-27 04:53:57,[-216.11721611721612|-230.76923076923077|-202.93040293040292|-214.65201465201466|-192.67399267399267]
685,2026-02-27 04:53:57,[-205.86080586080587|-191.2087912087912|-178.02197802197801|-217.58241758241758|-201.46520146520146]
686,2026-02-27 04:53:57,[-191.2087912087912|-169.23076923076923|-156.04395604395606|-172.8937728937729|-145.78754578754578]
687,2026-02-27 04:53:57,[-158.97435897435898|-173.62637362637363|-145.05494505494505|-148.71794871794873|-125.27472527472527]
688,2026-02-27 04:53:57,[-145.05494505494505|-136.26373626373626|-120.87912087912088|-159.7069597069597|-147.98534798534797]
689,2026-02-27 04:53:57,[-132.6007326007326|-115.01831501831502|-107.6923076923077|-121.6117216117216|-93.77289377289377]
690,2026-02-27 04:53:57,[-112.08791208791209|-127.47252747252747|-83.51648351648352|-72.52747252747253|-39.56043956043956]
691,2026-02-27 04:53:57,[-60.07326007326007|-65.2014652014652|-75.45787545787546|-135.53113553113553|-129.67032967032966]
692,2026-02-27 04:53:57,[-109.89010989010988|-97.43589743589743|-87.91208791208791|-106.22710622710623|-84.24908424908425]
693,2026-02-27 04:53:57,[-109.15750915750915|-8.058608058608058|369.96336996337|1193.4065934065934|1499.6336996336997]
694,2026-02-27 04:53:57,[626.3736263736264|-274.72527472527474|-530.4029304029305|-312.8205128205128|-135.53113553113553]
695,2026-02-27 04:53:57,[-52.014652014652015|-25.641025641025642|-16.117216117216117|-28.571428571428573|12.454212454212454]
696,2026-02-27 04:53:57,[5.86080586080586|-8.791208791208792|22.71062271062271|25.641025641025642|64.46886446886447]
697,2026-02-27 04:53:57,[59.34065934065934|74.72527472527473|101.83150183150182|76.92307692307692|103.2967032967033]
698,2026-02-27 04:53:57,[135.53113553113553|170.6959706959707|204.3956043956044|219.04761904761904|279.1208791208791]
699,2026-02-27 04:53:57,[303.2967032967033|334.7985347985348|406.5934065934066|431.5018315018315|495.23809523809524]
700,2026-02-27 04:53:58,[495.97069597069594|501.83150183150184|501.0989010989011|413.9194139194139|353.84615384615387]
701,2026-02-27 04:53:58,[267.3992673992674|163.36996336996336|56.41025641025641|-79.85347985347985|-150.1831501831502]
702,2026-02-27 04:53:58,[-239.56043956043956|-308.42490842490844|-323.0769230769231|-358.24175824175825|-344.32234432234435]
703,2026-02-27 04:53:58,[-369.96336996337|-360.43956043956047|-351.64835164835165|-391.94139194139194|-377.2893772893773]
704,2026-02-27 04:53:58,[-352.3809523809524|-324.54212454212455|-309.8901098901099|-323.0769230769231|-293.7728937728938]
705,2026-02-27 04:53:58,[-304.02930402930406|-314.2857142857143|-293.040293040293|-300.3663003663004|-271.06227106227107]
706,2026-02-27 04:53:58,[-290.1098901098901|-282.05128205128204|-276.1904761904762|-324.54212454212455|-317.94871794871796]
707,2026-02-27 04:53:58,[-309.15750915750914|-295.97069597069594|-293.7728937728938|-306.2271062271062|-274.72527472527474]
708,2026-02-27 04:53:58,[-299.6336996336996|-314.2857142857143|-289.3772893772894|-297.43589743589746|-267.3992673992674]
709,2026-02-27 04:53:58,[-284.98168498168496|-269.5970695970696|-263.003663003663|-295.23809523809524|-276.1904761904762]
710,2026-02-27 04:53:58,[-265.2014652014652|-249.8168498168498|-241.02564102564102|-259.34065934065933|-226.37362637362637]
711,2026-02-27 04:53:58,[-238.0952380952381|-251.28205128205127|-227.83882783882783|-238.0952380952381|-204.3956043956044]
712,2026-02-27 04:53:58,[-224.9084249084249|-214.65201465201466|-205.86080586080587|-243.95604395604394|-229.3040293040293]
713,2026-02-27 04:53:58,[-216.11721611721612|-197.06959706959708|-182.41758241758242|-195.6043956043956|-164.83516483516485]
714,2026-02-27 04:53:58,[-177.28937728937728|-189.74358974358975|-169.96336996336996|-176.55677655677655|-124.54212454212454]
715,2026-02-27 04:53:58,[-120.14652014652015|-107.6923076923077|-112.82051282051282|-158.24175824175825|-170.6959706959707]
716,2026-02-27 04:53:58,[-178.75457875457874|-158.24175824175825|-147.25274725274724|-160.43956043956044|-135.53113553113553]
717,2026-02-27 04:53:58,[-153.1135531135531|-172.16117216117217|-148.71794871794873|-9.523809523809524|442.4908424908425]
718,2026-02-27 04:53:58,[1307.6923076923076|1499.6336996336997|438.82783882783883|-469.5970695970696|-549.4505494505495]
719,2026-02-27 04:53:58,[-272.5274725274725|-120.14652014652015|-71.06227106227107|-85.71428571428571|-56.41025641025641]
720,2026-02-27 04:53:58,[-61.53846153846154|-62.27106227106227|-34.43223443223443|-35.8974358974359|-3.663003663003663]
721,2026-02-27 04:53:58,[-8.058608058608058|15.384615384615385|35.16483516483517|10.989010989010989|32.967032967032964]
722,2026-02-27 04:53:58,[60.8058608058608|99.63369963369964|126.00732600732601|135.53113553113553|185.34798534798534]
723,2026-02-27 04:53:59,[202.93040293040292|227.83882783882783|290.84249084249086|336.2637362637363|406.5934065934066]
724,2026-02-27 04:53:59,[424.90842490842493|463.7362637362637|489.3772893772894|456.4102564102564|463.003663003663]
725,2026-02-27 04:53:59,[415.38461538461536|350.9157509157509|251.28205128205127|112.82051282051282|13.91941391941392]
726,2026-02-27 04:53:59,[-117.94871794871794|-229.3040293040293|-273.2600732600733|-323.0769230769231|-325.27472527472526]
727,2026-02-27 04:53:59,[-362.6373626373626|-360.43956043956047|-360.43956043956047|-400.73260073260076|-387.54578754578756]
728,2026-02-27 04:53:59,[-369.2307692307692|-343.5897435897436|-331.86813186813185|-337.72893772893775|-304.76190476190476]
729,2026-02-27 04:53:59,[-317.2161172161172|-322.34432234432234|-298.16849816849816|-296.7032967032967|-266.6666666666667]
730,2026-02-27 04:53:59,[-287.1794871794872|-268.86446886446885|-265.2014652014652|-295.97069597069594|-271.79487179487177]
731,2026-02-27 04:53:59,[-277.65567765567766|-265.2014652014652|-264.46886446886447|-282.05128205128204|-260.0732600732601]
732,2026-02-27 04:53:59,[-275.45787545787545|-304.02930402930406|-273.992673992674|-265.9340659340659|-238.82783882783883]
733,2026-02-27 04:53:59,[-254.94505494505495|-238.0952380952381|-229.3040293040293|-264.46886446886447|-248.35164835164835]
734,2026-02-27 04:53:59,[-237.36263736263737|-214.65201465201466|-204.3956043956044|-218.3150183150183|-191.2087912087912]
735,2026-02-27 04:53:59,[-208.05860805860806|-217.58241758241758|-197.06959706959708|-196.33699633699635|-172.16117216117217]
736,2026-02-27 04:53:59,[-192.67399267399267|-174.35897435897436|-170.6959706959707|-201.46520146520146|-191.2087912087912]
737,2026-02-27 04:53:59,[-179.48717948717947|-156.04395604395606|-153.1135531135531|-167.76556776556777|-135.53113553113553]
738,2026-02-27 04:53:59,[-156.04395604395606|-164.83516483516485|-145.05494505494505|-147.25274725274724|-120.87912087912088]
739,2026-02-27 04:53:59,[-142.85714285714286|-119.41391941391942|-112.08791208791209|-147.98534798534797|-136.996336996337]
740,2026-02-27 04:53:59,[-129.67032967032966|-79.85347985347985|-56.41025641025641|-65.2014652014652|-60.8058608058608]
741,2026-02-27 04:53:59,[-90.10989010989012|-125.27472527472527|-120.87912087912088|-121.6117216117216|-95.97069597069597]
742,2026-02-27 04:53:59,[-111.35531135531136|-94.50549450549451|-94.50549450549451|-147.25274725274724|-134.7985347985348]
743,2026-02-27 04:53:59,[52.014652014652015|605.8608058608058|1499.6336996336997|1499.6336996336997|384.61538461538464]
744,2026-02-27 04:53:59,[-459.34065934065933|-437.3626373626374|-173.62637362637363|-67.3992673992674|-21.245421245421245]
745,2026-02-27 04:53:59,[-53.47985347985348|-35.8974358974359|-21.245421245421245|-38.827838827838825|-19.78021978021978]
746,2026-02-27 04:53:59,[-5.86080586080586|28.571428571428573|38.827838827838825|37.362637362637365|75.45787545787546]
747,2026-02-27 04:53:59,[66.66666666666667|72.52747252747253|104.76190476190476|122.34432234432235|167.76556776556777]
748,2026-02-27 04:53:59,[172.16117216117217|219.04761904761904|260.0732600732601|265.9340659340659|318.68131868131866]
749,2026-02-27 04:54:00,[383.1501831501831|449.0842490842491|484.98168498168496|503.2967032967033|546.5201465201466]
750,2026-02-27 04:54:00,[523.8095238095239|495.97069597069594|463.003663003663|380.95238095238096|292.3076923076923]
751,2026-02-27 04:54:00,[137.72893772893772|31.501831501831504|-74.72527472527473|-201.46520146520146|-263.7362637362637]
752,2026-02-27 04:54:00,[-305.4945054945055|-311.35531135531136|-334.0659340659341|-356.7765567765568|-336.2637362637363]
753,2026-02-27 04:54:00,[-355.3113553113553|-359.7069597069597|-337.72893772893775|-331.86813186813185|-298.9010989010989]
754,2026-02-27 04:54:00,[-312.8205128205128|-287.9120879120879|-274.72527472527474|-302.56410256410254|-289.3772893772894]
755,2026-02-27 04:54:00,[-273.2600732600733|-253.4798534798535|-255.67765567765568|-266.6666666666667|-246.8864468864469]
756,2026-02-27 04:54:00,[-265.9340659340659|-276.1904761904762|-263.003663003663|-265.2014652014652|-246.8864468864469]
757,2026-02-27 04:54:00,[-265.9340659340659|-243.95604395604394|-248.35164835164835|-282.7838827838828|-267.3992673992674]
758,2026-02-27 04:54:00,[-261.53846153846155|-241.02564102564102|-238.0952380952381|-241.02564102564102|-216.11721611721612]
759,2026-02-27 04:54:00,[-235.16483516483515|-240.2930402930403|-224.9084249084249|-221.24542124542126|-200.0]
760,2026-02-27 04:54:00,[-215.3846153846154|-191.2087912087912|-195.6043956043956|-227.83882783882783|-216.11721611721612]
761,2026-02-27 04:54:00,[-204.3956043956044|-174.35897435897436|-173.62637362637363|-181.6849816849817|-160.43956043956044]
762,2026-02-27 04:54:00,[-172.8937728937729|-178.75457875457874|-166.3003663003663|-167.76556776556777|-142.85714285714286]
763,2026-02-27 04:54:00,[-160.43956043956044|-135.53113553113553|-135.53113553113553|-169.23076923076923|-149.45054945054946]
764,2026-02-27 04:54:00,[-142.12454212454213|-119.41391941391942|-121.6117216117216|-131.13553113553112|-108.42490842490842]
765,2026-02-27 04:54:00,[-126.73992673992674|-123.80952380952381|-114.28571428571429|-119.41391941391942|-87.17948717948718]
766,2026-02-27 04:54:00,[-77.65567765567765|-40.29304029304029|-48.35164835164835|-66.66666666666667|-63.00366300366301]
767,2026-02-27 04:54:00,[-110.62271062271063|-100.36630036630036|-106.22710622710623|-110.62271062271063|-87.91208791208791]
768,2026-02-27 04:54:00,[-106.95970695970696|-142.85714285714286|-132.6007326007326|-85.71428571428571|126.00732600732601]
769,2026-02-27 04:54:00,[608.7912087912088|1499.6336996336997|1282.051282051282|161.9047619047619|-501.83150183150184]
770,2026-02-27 04:54:00,[-475.45787545787545|-208.7912087912088|-84.24908424908425|-51.282051282051285|-25.641025641025642]
771,2026-02-27 04:54:00,[-47.61904761904762|-40.29304029304029|-21.245421245421245|-19.78021978021978|15.384615384615385]
772,2026-02-27 04:54:00,[10.989010989010989|34.43223443223443|43.223443223443226|20.512820512820515|41.02564102564103]
773,2026-02-27 04:54:00,[62.27106227106227|101.0989010989011|112.82051282051282|126.73992673992674|169.96336996336996]
774,2026-02-27 04:54:01,[178.02197802197801|202.93040293040292|260.0732600732601|301.83150183150184|365.56776556776555]
775,2026-02-27 04:54:01,[390.4761904761905|443.2234432234432|466.6666666666667|460.0732600732601|467.3992673992674]
776,2026-02-27 04:54:01,[440.2930402930403|409.5238095238095|322.34432234432234|202.1978021978022|100.36630036630036]
777,2026-02-27 04:54:01,[-40.29304029304029|-125.27472527472527|-211.7216117216117|-284.98168498168496|-302.56410256410254]
778,2026-02-27 04:54:01,[-352.3809523809524|-354.57875457875457|-368.4981684981685|-435.8974358974359|-428.57142857142856]
779,2026-02-27 04:54:01,[-393.4065934065934|-353.84615384615387|-351.64835164835165|-356.04395604395603|-323.0769230769231]
780,2026-02-27 04:54:01,[-333.3333333333333|-331.86813186813185|-317.94871794871796|-311.35531135531136|-286.4468864468864]
781,2026-02-27 04:54:01,[-302.56410256410254|-283.5164835164835|-287.9120879120879|-317.2161172161172|-311.35531135531136]
782,2026-02-27 04:54:01,[-306.959706959707|-282.05128205128204|-290.1098901098901|-304.02930402930406|-282.05128205128204]
783,2026-02-27 04:54:01,[-301.0989010989011|-306.2271062271062|-298.16849816849816|-293.7728937728938|-274.72527472527474]
784,2026-02-27 04:54:01,[-297.43589743589746|-271.79487179487177|-272.5274725274725|-298.16849816849816|-287.1794871794872]
785,2026-02-27 04:54:01,[-270.3296703296703|-246.8864468864469|-249.8168498168498|-252.74725274725276|-230.03663003663004]
786,2026-02-27 04:54:01,[-246.8864468864469|-246.8864468864469|-238.0952380952381|-228.57142857142858|-208.05860805860806]
787,2026-02-27 04:54:01,[-225.64102564102564|-204.3956043956044|-204.3956043956044|-230.76923076923077|-223.44322344322345]
788,2026-02-27 04:54:01,[-209.52380952380952|-178.75457875457874|-182.41758241758242|-188.2783882783883|-167.76556776556777]
789,2026-02-27 04:54:01,[-182.41758241758242|-188.2783882783883|-173.62637362637363|-168.4981684981685|-146.5201465201465]
790,2026-02-27 04:54:01,[-166.3003663003663|-143.5897435897436|-149.45054945054946|-174.35897435897436|-158.24175824175825]
791,2026-02-27 04:54:01,[-145.78754578754578|-120.87912087912088|-126.73992673992674|-144.32234432234432|-113.55311355311355]
792,2026-02-27 04:54:01,[-102.56410256410257|-65.2014652014652|-76.19047619047619|-94.50549450549451|-88.64468864468864]
793,2026-02-27 04:54:01,[-135.53113553113553|-129.67032967032966|-131.13553113553112|-153.84615384615384|-154.57875457875457]
794,2026-02-27 04:54:01,[-134.06593406593407|-107.6923076923077|-136.996336996337|-101.83150183150182|150.1831501831502]
795,2026-02-27 04:54:01,[772.8937728937728|1499.6336996336997|1153.8461538461538|45.42124542124542|-512.0879120879121]
796,2026-02-27 04:54:01,[-367.76556776556777|-142.85714285714286|-60.8058608058608|-75.45787545787546|-73.26007326007326]
797,2026-02-27 04:54:01,[-64.46886446886447|-19.78021978021978|-19.78021978021978|-16.84981684981685|16.117216117216117]
798,2026-02-27 04:54:01,[5.86080586080586|12.454212454212454|28.571428571428573|44.688644688644686|78.3882783882784]
799,2026-02-27 04:54:02,[75.45787545787546|113.55311355311355|125.27472527472527|115.01831501831502|148.71794871794873]
800,2026-02-27 04:54:02,[186.8131868131868|252.74725274725276|287.1794871794872|322.34432234432234|391.2087912087912]
801,2026-02-27 04:54:02,[413.1868131868132|452.01465201465203|485.7142857142857|497.43589743589746|512.0879120879121]
802,2026-02-27 04:54:02,[466.6666666666667|438.82783882783883|340.65934065934067|197.06959706959708|80.58608058608058]
803,2026-02-27 04:54:02,[-31.501831501831504|-110.62271062271063|-204.3956043956044|-267.3992673992674|-290.84249084249086]
804,2026-02-27 04:54:02,[-346.5201465201465|-360.43956043956047|-369.96336996337|-371.42857142857144|-349.45054945054943]
805,2026-02-27 04:54:02,[-368.4981684981685|-336.2637362637363|-337.72893772893775|-355.3113553113553|-345.7875457875458]
806,2026-02-27 04:54:02,[-332.6007326007326|-295.23809523809524|-298.9010989010989|-298.16849816849816|-276.1904761904762]
807,2026-02-27 04:54:02,[-296.7032967032967|-289.3772893772894|-284.24908424908426|-274.72527472527474|-258.6080586080586]
808,2026-02-27 04:54:02,[-283.5164835164835|-260.0732600732601|-271.06227106227107|-296.7032967032967|-287.9120879120879]
809,2026-02-27 04:54:02,[-287.9120879120879|-258.6080586080586|-265.2014652014652|-267.3992673992674|-248.35164835164835]
810,2026-02-27 04:54:02,[-264.46886446886447|-261.53846153846155|-252.01465201465203|-243.95604395604394|-220.51282051282053]
811,2026-02-27 04:54:02,[-241.02564102564102|-217.58241758241758|-224.9084249084249|-243.2234432234432|-241.02564102564102]
812,2026-02-27 04:54:02,[-230.76923076923077|-194.13919413919413|-204.3956043956044|-207.32600732600733|-182.41758241758242]
813,2026-02-27 04:54:02,[-206.5934065934066|-208.7912087912088|-197.06959706959708|-189.74358974358975|-166.3003663003663]
814,2026-02-27 04:54:02,[-183.15018315018315|-161.17216117216117|-169.96336996336996|-193.4065934065934|-182.41758241758242]
815,2026-02-27 04:54:02,[-173.62637362637363|-147.25274725274724|-153.84615384615384|-154.57875457875457|-132.6007326007326]
816,2026-02-27 04:54:02,[-153.84615384615384|-147.25274725274724|-142.12454212454213|-131.86813186813185|-110.62271062271063]
817,2026-02-27 04:54:02,[-126.00732600732601|-101.83150183150182|-112.08791208791209|-132.6007326007326|-127.47252747252747]
818,2026-02-27 04:54:02,[-121.6117216117216|-87.17948717948718|-97.43589743589743|-100.36630036630036|-81.31868131868131]
819,2026-02-27 04:54:02,[-106.22710622710623|-102.56410256410257|-107.6923076923077|-90.10989010989012|-40.29304029304029]
820,2026-02-27 04:54:02,[-47.61904761904762|-27.106227106227106|-49.08424908424909|-84.98168498168498|-101.83150183150182]
821,2026-02-27 04:54:02,[-109.15750915750915|-78.3882783882784|-87.91208791208791|-86.44688644688645|-62.27106227106227]
822,2026-02-27 04:54:02,[-82.78388278388279|-126.73992673992674|-97.43589743589743|138.46153846153845|781.6849816849817]
823,2026-02-27 04:54:02,[1499.6336996336997|1441.7582417582419|208.05860805860806|-506.2271062271062|-367.032967032967]
824,2026-02-27 04:54:03,[-141.3919413919414|-21.245421245421245|-25.641025641025642|-32.967032967032964|-9.523809523809524]
825,2026-02-27 04:54:03,[-18.315018315018314|-7.326007326007326|10.989010989010989|21.978021978021978|51.282051282051285]
826,2026-02-27 04:54:03,[43.223443223443226|76.19047619047619|75.45787545787546|65.2014652014652|85.71428571428571]
827,2026-02-27 04:54:03,[113.55311355311355|161.9047619047619|170.6959706959707|195.6043956043956|245.42124542124543]
828,2026-02-27 04:54:03,[263.003663003663|301.0989010989011|349.45054945054943|405.12820512820514|472.5274725274725]
829,2026-02-27 04:54:03,[489.3772893772894|541.3919413919414|545.054945054945|524.5421245421245|499.6336996336996]
