Packet_Number,Timestamp,Data
1,2026-02-27 04:53:30,[107838|0]
2,2026-02-27 04:53:30,[107870|0]
3,2026-02-27 04:53:30,[107867|0]
4,2026-02-27 04:53:30,[107914|0]
5,2026-02-27 04:53:30,[107940|0]
6,2026-02-27 04:53:30,[107975|0]
7,2026-02-27 04:53:30,[108013|0]
8,2026-02-27 04:53:30,[108042|0]
9,2026-02-27 04:53:30,[108058|0]
10,2026-02-27 04:53:30,[108109|0]
11,2026-02-27 04:53:30,[108146|0]
12,2026-02-27 04:53:30,[108172|0]
13,2026-02-27 04:53:30,[108005|0]
14,2026-02-27 04:53:30,[107732|0]
15,2026-02-27 04:53:30,[107597|0]
16,2026-02-27 04:53:30,[107639|0]
17,2026-02-27 04:53:30,[107690|0]
18,2026-02-27 04:53:30,[107694|0]
19,2026-02-27 04:53:30,[107700|0]
20,2026-02-27 04:53:30,[107718|0]
21,2026-02-27 04:53:30,[107659|0]
22,2026-02-27 04:53:30,[107669|0]
23,2026-02-27 04:53:30,[107680|0]
24,2026-02-27 04:53:31,[107730|0]
25,2026-02-27 04:53:31,[107769|0]
26,2026-02-27 04:53:31,[107799|0]
27,2026-02-27 04:53:31,[107817|0]
28,2026-02-27 04:53:31,[107847|0]
29,2026-02-27 04:53:31,[107863|0]
30,2026-02-27 04:53:31,[107884|0]
31,2026-02-27 04:53:31,[107917|0]
32,2026-02-27 04:53:31,[107941|0]
33,2026-02-27 04:53:31,[107975|0]
34,2026-02-27 04:53:31,[108014|0]
35,2026-02-27 04:53:31,[108042|0]
36,2026-02-27 04:53:31,[108083|0]
37,2026-02-27 04:53:31,[108112|0]
38,2026-02-27 04:53:31,[107930|0]
39,2026-02-27 04:53:31,[107601|0]
40,2026-02-27 04:53:31,[107432|0]
41,2026-02-27 04:53:31,[107402|0]
42,2026-02-27 04:53:31,[107432|0]
43,2026-02-27 04:53:31,[107418|0]
44,2026-02-27 04:53:31,[107386|0]
45,2026-02-27 04:53:31,[107387|0]
46,2026-02-27 04:53:31,[107380|0]
47,2026-02-27 04:53:31,[107359|0]
48,2026-02-27 04:53:31,[107357|0]
49,2026-02-27 04:53:32,[107397|0]
50,2026-02-27 04:53:32,[107409|0]
51,2026-02-27 04:53:32,[107458|0]
52,2026-02-27 04:53:32,[107471|0]
53,2026-02-27 04:53:32,[107512|0]
54,2026-02-27 04:53:32,[107529|0]
55,2026-02-27 04:53:32,[107551|0]
56,2026-02-27 04:53:32,[107572|0]
57,2026-02-27 04:53:32,[107612|0]
58,2026-02-27 04:53:32,[107655|0]
59,2026-02-27 04:53:32,[107691|0]
60,2026-02-27 04:53:32,[107731|0]
61,2026-02-27 04:53:32,[107767|0]
62,2026-02-27 04:53:32,[107791|0]
63,2026-02-27 04:53:32,[107831|0]
64,2026-02-27 04:53:32,[107649|0]
65,2026-02-27 04:53:32,[107308|0]
66,2026-02-27 04:53:32,[107103|0]
67,2026-02-27 04:53:32,[107069|0]
68,2026-02-27 04:53:32,[107077|0]
69,2026-02-27 04:53:32,[107072|0]
70,2026-02-27 04:53:32,[107062|0]
71,2026-02-27 04:53:32,[107078|0]
72,2026-02-27 04:53:32,[107057|0]
73,2026-02-27 04:53:32,[107057|0]
74,2026-02-27 04:53:33,[107040|0]
75,2026-02-27 04:53:33,[107017|0]
76,2026-02-27 04:53:33,[107050|0]
77,2026-02-27 04:53:33,[107113|0]
78,2026-02-27 04:53:33,[107157|0]
79,2026-02-27 04:53:33,[107186|0]
80,2026-02-27 04:53:33,[107223|0]
81,2026-02-27 04:53:33,[107239|0]
82,2026-02-27 04:53:33,[107273|0]
83,2026-02-27 04:53:33,[107315|0]
84,2026-02-27 04:53:33,[107358|0]
85,2026-02-27 04:53:33,[107403|0]
86,2026-02-27 04:53:33,[107449|0]
87,2026-02-27 04:53:33,[107461|0]
88,2026-02-27 04:53:33,[107540|0]
89,2026-02-27 04:53:33,[107582|0]
90,2026-02-27 04:53:33,[107628|0]
91,2026-02-27 04:53:33,[107588|0]
92,2026-02-27 04:53:33,[107271|0]
93,2026-02-27 04:53:33,[106955|0]
94,2026-02-27 04:53:33,[106869|0]
95,2026-02-27 04:53:33,[106890|0]
96,2026-02-27 04:53:33,[106928|0]
97,2026-02-27 04:53:33,[106936|0]
98,2026-02-27 04:53:33,[106961|0]
99,2026-02-27 04:53:33,[106923|0]
100,2026-02-27 04:53:34,[106914|0]
101,2026-02-27 04:53:34,[106911|0]
102,2026-02-27 04:53:34,[106946|0]
103,2026-02-27 04:53:34,[106989|0]
104,2026-02-27 04:53:34,[107040|0]
105,2026-02-27 04:53:34,[107080|0]
106,2026-02-27 04:53:34,[107137|0]
107,2026-02-27 04:53:34,[107169|0]
108,2026-02-27 04:53:34,[107189|0]
109,2026-02-27 04:53:34,[107235|0]
110,2026-02-27 04:53:34,[107283|0]
111,2026-02-27 04:53:34,[107314|0]
112,2026-02-27 04:53:34,[107374|0]
113,2026-02-27 04:53:34,[107422|0]
114,2026-02-27 04:53:34,[107471|0]
115,2026-02-27 04:53:34,[107518|0]
116,2026-02-27 04:53:34,[107543|0]
117,2026-02-27 04:53:34,[107306|0]
118,2026-02-27 04:53:34,[106980|0]
119,2026-02-27 04:53:34,[106784|0]
120,2026-02-27 04:53:34,[106761|0]
121,2026-02-27 04:53:34,[106802|0]
122,2026-02-27 04:53:34,[106805|0]
123,2026-02-27 04:53:34,[106783|0]
124,2026-02-27 04:53:35,[106825|0]
125,2026-02-27 04:53:35,[106813|0]
126,2026-02-27 04:53:35,[106788|0]
127,2026-02-27 04:53:35,[106801|0]
128,2026-02-27 04:53:35,[106853|0]
129,2026-02-27 04:53:35,[106883|0]
130,2026-02-27 04:53:35,[106946|0]
131,2026-02-27 04:53:35,[107000|0]
132,2026-02-27 04:53:35,[107026|0]
133,2026-02-27 04:53:35,[107056|0]
134,2026-02-27 04:53:35,[107109|0]
135,2026-02-27 04:53:35,[107113|0]
136,2026-02-27 04:53:35,[107168|0]
137,2026-02-27 04:53:35,[107226|0]
138,2026-02-27 04:53:35,[107278|0]
139,2026-02-27 04:53:35,[107324|0]
140,2026-02-27 04:53:35,[107365|0]
141,2026-02-27 04:53:35,[107401|0]
142,2026-02-27 04:53:35,[107465|0]
143,2026-02-27 04:53:35,[107355|0]
144,2026-02-27 04:53:35,[106976|0]
145,2026-02-27 04:53:35,[106677|0]
146,2026-02-27 04:53:35,[106583|0]
147,2026-02-27 04:53:35,[106598|0]
148,2026-02-27 04:53:35,[106615|0]
149,2026-02-27 04:53:36,[106610|0]
150,2026-02-27 04:53:36,[106631|0]
151,2026-02-27 04:53:36,[106619|0]
152,2026-02-27 04:53:36,[106585|0]
153,2026-02-27 04:53:36,[106578|0]
154,2026-02-27 04:53:36,[106610|0]
155,2026-02-27 04:53:36,[106669|0]
156,2026-02-27 04:53:36,[106716|0]
157,2026-02-27 04:53:36,[106755|0]
158,2026-02-27 04:53:36,[106787|0]
159,2026-02-27 04:53:36,[106802|0]
160,2026-02-27 04:53:36,[106841|0]
161,2026-02-27 04:53:36,[106883|0]
162,2026-02-27 04:53:36,[106924|0]
163,2026-02-27 04:53:36,[106998|0]
164,2026-02-27 04:53:36,[107026|0]
165,2026-02-27 04:53:36,[107083|0]
166,2026-02-27 04:53:36,[107125|0]
167,2026-02-27 04:53:36,[107176|0]
168,2026-02-27 04:53:36,[107235|0]
169,2026-02-27 04:53:36,[107282|0]
170,2026-02-27 04:53:36,[107168|0]
171,2026-02-27 04:53:36,[106797|0]
172,2026-02-27 04:53:36,[106496|0]
173,2026-02-27 04:53:37,[106400|0]
174,2026-02-27 04:53:37,[106427|0]
175,2026-02-27 04:53:37,[106451|0]
176,2026-02-27 04:53:37,[106440|0]
177,2026-02-27 04:53:37,[106477|0]
178,2026-02-27 04:53:37,[106472|0]
179,2026-02-27 04:53:37,[106440|0]
180,2026-02-27 04:53:37,[106437|0]
181,2026-02-27 04:53:37,[106466|0]
182,2026-02-27 04:53:37,[106516|0]
183,2026-02-27 04:53:37,[106580|0]
184,2026-02-27 04:53:37,[106651|0]
185,2026-02-27 04:53:37,[106692|0]
186,2026-02-27 04:53:37,[106726|0]
187,2026-02-27 04:53:37,[106726|0]
188,2026-02-27 04:53:37,[106756|0]
189,2026-02-27 04:53:37,[106776|0]
190,2026-02-27 04:53:37,[106836|0]
191,2026-02-27 04:53:37,[106914|0]
192,2026-02-27 04:53:37,[106948|0]
193,2026-02-27 04:53:37,[107000|0]
194,2026-02-27 04:53:37,[107046|0]
195,2026-02-27 04:53:37,[107083|0]
196,2026-02-27 04:53:37,[107139|0]
197,2026-02-27 04:53:37,[106932|0]
198,2026-02-27 04:53:37,[106546|0]
199,2026-02-27 04:53:38,[106309|0]
200,2026-02-27 04:53:38,[106261|0]
201,2026-02-27 04:53:38,[106277|0]
202,2026-02-27 04:53:38,[106322|0]
203,2026-02-27 04:53:38,[106347|0]
204,2026-02-27 04:53:38,[106377|0]
205,2026-02-27 04:53:38,[106366|0]
206,2026-02-27 04:53:38,[106344|0]
207,2026-02-27 04:53:38,[106340|0]
208,2026-02-27 04:53:38,[106409|0]
209,2026-02-27 04:53:38,[106478|0]
210,2026-02-27 04:53:38,[106544|0]
211,2026-02-27 04:53:38,[106590|0]
212,2026-02-27 04:53:38,[106630|0]
213,2026-02-27 04:53:38,[106636|0]
214,2026-02-27 04:53:38,[106701|0]
215,2026-02-27 04:53:38,[106732|0]
216,2026-02-27 04:53:38,[106791|0]
217,2026-02-27 04:53:38,[106837|0]
218,2026-02-27 04:53:38,[106889|0]
219,2026-02-27 04:53:38,[106933|0]
220,2026-02-27 04:53:38,[107003|0]
221,2026-02-27 04:53:38,[107039|0]
222,2026-02-27 04:53:38,[107074|0]
223,2026-02-27 04:53:38,[106922|0]
224,2026-02-27 04:53:39,[106504|0]
225,2026-02-27 04:53:39,[106163|0]
226,2026-02-27 04:53:39,[106099|0]
227,2026-02-27 04:53:39,[106122|0]
228,2026-02-27 04:53:39,[106119|0]
229,2026-02-27 04:53:39,[106114|0]
230,2026-02-27 04:53:39,[106123|0]
231,2026-02-27 04:53:39,[106097|0]
232,2026-02-27 04:53:39,[106098|0]
233,2026-02-27 04:53:39,[106104|0]
234,2026-02-27 04:53:39,[106138|0]
235,2026-02-27 04:53:39,[106189|0]
236,2026-02-27 04:53:39,[106256|0]
237,2026-02-27 04:53:39,[106278|0]
238,2026-02-27 04:53:39,[106342|0]
239,2026-02-27 04:53:39,[106378|0]
240,2026-02-27 04:53:39,[106419|0]
241,2026-02-27 04:53:39,[106447|0]
242,2026-02-27 04:53:39,[106497|0]
243,2026-02-27 04:53:39,[106529|0]
244,2026-02-27 04:53:39,[106600|0]
245,2026-02-27 04:53:39,[106637|0]
246,2026-02-27 04:53:39,[106692|0]
247,2026-02-27 04:53:39,[106743|0]
248,2026-02-27 04:53:39,[106809|0]
249,2026-02-27 04:53:39,[106821|0]
250,2026-02-27 04:53:40,[106884|0]
251,2026-02-27 04:53:40,[106787|0]
252,2026-02-27 04:53:40,[106378|0]
253,2026-02-27 04:53:40,[106038|0]
254,2026-02-27 04:53:40,[105916|0]
255,2026-02-27 04:53:40,[105914|0]
256,2026-02-27 04:53:40,[105953|0]
257,2026-02-27 04:53:40,[105953|0]
258,2026-02-27 04:53:40,[105975|0]
259,2026-02-27 04:53:40,[105969|0]
260,2026-02-27 04:53:40,[105945|0]
261,2026-02-27 04:53:40,[105927|0]
262,2026-02-27 04:53:40,[105985|0]
263,2026-02-27 04:53:40,[106038|0]
264,2026-02-27 04:53:40,[106089|0]
265,2026-02-27 04:53:40,[106147|0]
266,2026-02-27 04:53:40,[106180|0]
267,2026-02-27 04:53:40,[106208|0]
268,2026-02-27 04:53:40,[106254|0]
269,2026-02-27 04:53:40,[106292|0]
270,2026-02-27 04:53:40,[106350|0]
271,2026-02-27 04:53:40,[106410|0]
272,2026-02-27 04:53:40,[106442|0]
273,2026-02-27 04:53:40,[106503|0]
274,2026-02-27 04:53:41,[106561|0]
275,2026-02-27 04:53:41,[106595|0]
276,2026-02-27 04:53:41,[106644|0]
277,2026-02-27 04:53:41,[106695|0]
278,2026-02-27 04:53:41,[106469|0]
279,2026-02-27 04:53:41,[106061|0]
280,2026-02-27 04:53:41,[105771|0]
281,2026-02-27 04:53:41,[105692|0]
282,2026-02-27 04:53:41,[105715|0]
283,2026-02-27 04:53:41,[105720|0]
284,2026-02-27 04:53:41,[105731|0]
285,2026-02-27 04:53:41,[105749|0]
286,2026-02-27 04:53:41,[105735|0]
287,2026-02-27 04:53:41,[105722|0]
288,2026-02-27 04:53:41,[105743|0]
289,2026-02-27 04:53:41,[105782|0]
290,2026-02-27 04:53:41,[105833|0]
291,2026-02-27 04:53:41,[105899|0]
292,2026-02-27 04:53:41,[105962|0]
293,2026-02-27 04:53:41,[106007|0]
294,2026-02-27 04:53:41,[106041|0]
295,2026-02-27 04:53:41,[106067|0]
296,2026-02-27 04:53:41,[106087|0]
297,2026-02-27 04:53:41,[106139|0]
298,2026-02-27 04:53:41,[106203|0]
299,2026-02-27 04:53:42,[106259|0]
300,2026-02-27 04:53:42,[106315|0]
301,2026-02-27 04:53:42,[106315|0]
302,2026-02-27 04:53:42,[106358|0]
303,2026-02-27 04:53:42,[106397|0]
304,2026-02-27 04:53:42,[106445|0]
305,2026-02-27 04:53:42,[106519|0]
306,2026-02-27 04:53:42,[106453|0]
307,2026-02-27 04:53:42,[106073|0]
308,2026-02-27 04:53:42,[105678|0]
309,2026-02-27 04:53:42,[105480|0]
310,2026-02-27 04:53:42,[105475|0]
311,2026-02-27 04:53:42,[105489|0]
312,2026-02-27 04:53:42,[105465|0]
313,2026-02-27 04:53:42,[105487|0]
314,2026-02-27 04:53:42,[105503|0]
315,2026-02-27 04:53:42,[105461|0]
316,2026-02-27 04:53:42,[105476|0]
317,2026-02-27 04:53:42,[105503|0]
318,2026-02-27 04:53:42,[105570|0]
319,2026-02-27 04:53:42,[105625|0]
320,2026-02-27 04:53:42,[105689|0]
321,2026-02-27 04:53:42,[105713|0]
322,2026-02-27 04:53:42,[105779|0]
323,2026-02-27 04:53:42,[105817|0]
324,2026-02-27 04:53:42,[105858|0]
325,2026-02-27 04:53:43,[105904|0]
326,2026-02-27 04:53:43,[105952|0]
327,2026-02-27 04:53:43,[105985|0]
328,2026-02-27 04:53:43,[106069|0]
329,2026-02-27 04:53:43,[106126|0]
330,2026-02-27 04:53:43,[106179|0]
331,2026-02-27 04:53:43,[106222|0]
332,2026-02-27 04:53:43,[106260|0]
333,2026-02-27 04:53:43,[106321|0]
334,2026-02-27 04:53:43,[106320|0]
335,2026-02-27 04:53:43,[105972|0]
336,2026-02-27 04:53:43,[105550|0]
337,2026-02-27 04:53:43,[105332|0]
338,2026-02-27 04:53:43,[105303|0]
339,2026-02-27 04:53:43,[105332|0]
340,2026-02-27 04:53:43,[105340|0]
341,2026-02-27 04:53:43,[105376|0]
342,2026-02-27 04:53:43,[105396|0]
343,2026-02-27 04:53:43,[105380|0]
344,2026-02-27 04:53:43,[105385|0]
345,2026-02-27 04:53:43,[105380|0]
346,2026-02-27 04:53:43,[105456|0]
347,2026-02-27 04:53:43,[105527|0]
348,2026-02-27 04:53:43,[105597|0]
349,2026-02-27 04:53:44,[105653|0]
350,2026-02-27 04:53:44,[105698|0]
351,2026-02-27 04:53:44,[105713|0]
352,2026-02-27 04:53:44,[105782|0]
353,2026-02-27 04:53:44,[105843|0]
354,2026-02-27 04:53:44,[105919|0]
355,2026-02-27 04:53:44,[105992|0]
356,2026-02-27 04:53:44,[106046|0]
357,2026-02-27 04:53:44,[106098|0]
358,2026-02-27 04:53:44,[106170|0]
359,2026-02-27 04:53:44,[106236|0]
360,2026-02-27 04:53:44,[106287|0]
361,2026-02-27 04:53:44,[106073|0]
362,2026-02-27 04:53:44,[105676|0]
363,2026-02-27 04:53:44,[105386|0]
364,2026-02-27 04:53:44,[105350|0]
365,2026-02-27 04:53:44,[105410|0]
366,2026-02-27 04:53:44,[105444|0]
367,2026-02-27 04:53:44,[105471|0]
368,2026-02-27 04:53:44,[105496|0]
369,2026-02-27 04:53:44,[105478|0]
370,2026-02-27 04:53:44,[105486|0]
371,2026-02-27 04:53:44,[105498|0]
372,2026-02-27 04:53:44,[105555|0]
373,2026-02-27 04:53:44,[105629|0]
374,2026-02-27 04:53:45,[105699|0]
375,2026-02-27 04:53:45,[105744|0]
376,2026-02-27 04:53:45,[105814|0]
377,2026-02-27 04:53:45,[105844|0]
378,2026-02-27 04:53:45,[105890|0]
379,2026-02-27 04:53:45,[105950|0]
380,2026-02-27 04:53:45,[105994|0]
381,2026-02-27 04:53:45,[106037|0]
382,2026-02-27 04:53:45,[106121|0]
383,2026-02-27 04:53:45,[106175|0]
384,2026-02-27 04:53:45,[106228|0]
385,2026-02-27 04:53:45,[106281|0]
386,2026-02-27 04:53:45,[106308|0]
387,2026-02-27 04:53:45,[106012|0]
388,2026-02-27 04:53:45,[105570|0]
389,2026-02-27 04:53:45,[105287|0]
390,2026-02-27 04:53:45,[105250|0]
391,2026-02-27 04:53:45,[105271|0]
392,2026-02-27 04:53:45,[105239|0]
393,2026-02-27 04:53:45,[105246|0]
394,2026-02-27 04:53:45,[105271|0]
395,2026-02-27 04:53:45,[105258|0]
396,2026-02-27 04:53:45,[105264|0]
397,2026-02-27 04:53:45,[105266|0]
398,2026-02-27 04:53:45,[105306|0]
399,2026-02-27 04:53:45,[105373|0]
400,2026-02-27 04:53:46,[105438|0]
401,2026-02-27 04:53:46,[105502|0]
402,2026-02-27 04:53:46,[105544|0]
403,2026-02-27 04:53:46,[105584|0]
404,2026-02-27 04:53:46,[105607|0]
405,2026-02-27 04:53:46,[105673|0]
406,2026-02-27 04:53:46,[105737|0]
407,2026-02-27 04:53:46,[105790|0]
408,2026-02-27 04:53:46,[105855|0]
409,2026-02-27 04:53:46,[105914|0]
410,2026-02-27 04:53:46,[105952|0]
411,2026-02-27 04:53:46,[106021|0]
412,2026-02-27 04:53:46,[106076|0]
413,2026-02-27 04:53:46,[105870|0]
414,2026-02-27 04:53:46,[105435|0]
415,2026-02-27 04:53:46,[105435|0]
416,2026-02-27 04:53:46,[105146|0]
417,2026-02-27 04:53:46,[105067|0]
418,2026-02-27 04:53:46,[105088|0]
419,2026-02-27 04:53:46,[105127|0]
420,2026-02-27 04:53:46,[105141|0]
421,2026-02-27 04:53:46,[105174|0]
422,2026-02-27 04:53:46,[105161|0]
423,2026-02-27 04:53:46,[105123|0]
424,2026-02-27 04:53:47,[105150|0]
425,2026-02-27 04:53:47,[105202|0]
426,2026-02-27 04:53:47,[105285|0]
427,2026-02-27 04:53:47,[105350|0]
428,2026-02-27 04:53:47,[105409|0]
429,2026-02-27 04:53:47,[105427|0]
430,2026-02-27 04:53:47,[105503|0]
431,2026-02-27 04:53:47,[105534|0]
432,2026-02-27 04:53:47,[105583|0]
433,2026-02-27 04:53:47,[105656|0]
434,2026-02-27 04:53:47,[105707|0]
435,2026-02-27 04:53:47,[105739|0]
436,2026-02-27 04:53:47,[105810|0]
437,2026-02-27 04:53:47,[105878|0]
438,2026-02-27 04:53:47,[105928|0]
439,2026-02-27 04:53:47,[105706|0]
440,2026-02-27 04:53:47,[105270|0]
441,2026-02-27 04:53:47,[104955|0]
442,2026-02-27 04:53:47,[104915|0]
443,2026-02-27 04:53:47,[104954|0]
444,2026-02-27 04:53:47,[104961|0]
445,2026-02-27 04:53:47,[104984|0]
446,2026-02-27 04:53:47,[105030|0]
447,2026-02-27 04:53:47,[105001|0]
448,2026-02-27 04:53:47,[105010|0]
449,2026-02-27 04:53:48,[105035|0]
450,2026-02-27 04:53:48,[105095|0]
451,2026-02-27 04:53:48,[105171|0]
452,2026-02-27 04:53:48,[105237|0]
453,2026-02-27 04:53:48,[105288|0]
454,2026-02-27 04:53:48,[105349|0]
455,2026-02-27 04:53:48,[105397|0]
456,2026-02-27 04:53:48,[105444|0]
457,2026-02-27 04:53:48,[105505|0]
458,2026-02-27 04:53:48,[105573|0]
459,2026-02-27 04:53:48,[105610|0]
460,2026-02-27 04:53:48,[105702|0]
461,2026-02-27 04:53:48,[105783|0]
462,2026-02-27 04:53:48,[105863|0]
463,2026-02-27 04:53:48,[105913|0]
464,2026-02-27 04:53:48,[105977|0]
465,2026-02-27 04:53:48,[105867|0]
466,2026-02-27 04:53:48,[105446|0]
467,2026-02-27 04:53:48,[105077|0]
468,2026-02-27 04:53:48,[104923|0]
469,2026-02-27 04:53:48,[104910|0]
470,2026-02-27 04:53:48,[104919|0]
471,2026-02-27 04:53:48,[104888|0]
472,2026-02-27 04:53:48,[104963|0]
473,2026-02-27 04:53:49,[104966|0]
474,2026-02-27 04:53:49,[104941|0]
475,2026-02-27 04:53:49,[104947|0]
476,2026-02-27 04:53:49,[104989|0]
477,2026-02-27 04:53:49,[105034|0]
478,2026-02-27 04:53:49,[105117|0]
479,2026-02-27 04:53:49,[105172|0]
480,2026-02-27 04:53:49,[105217|0]
481,2026-02-27 04:53:49,[105258|0]
482,2026-02-27 04:53:49,[105294|0]
483,2026-02-27 04:53:49,[105313|0]
484,2026-02-27 04:53:49,[105367|0]
485,2026-02-27 04:53:49,[105421|0]
486,2026-02-27 04:53:49,[105487|0]
487,2026-02-27 04:53:49,[105543|0]
488,2026-02-27 04:53:49,[105604|0]
489,2026-02-27 04:53:49,[105633|0]
490,2026-02-27 04:53:49,[105435|0]
491,2026-02-27 04:53:49,[104997|0]
492,2026-02-27 04:53:49,[104698|0]
493,2026-02-27 04:53:49,[104627|0]
494,2026-02-27 04:53:49,[104652|0]
495,2026-02-27 04:53:49,[104667|0]
496,2026-02-27 04:53:49,[104715|0]
497,2026-02-27 04:53:49,[104777|0]
498,2026-02-27 04:53:49,[104788|0]
499,2026-02-27 04:53:50,[104792|0]
500,2026-02-27 04:53:50,[104818|0]
501,2026-02-27 04:53:50,[104874|0]
502,2026-02-27 04:53:50,[104985|0]
503,2026-02-27 04:53:50,[105064|0]
504,2026-02-27 04:53:50,[105157|0]
505,2026-02-27 04:53:50,[105182|0]
506,2026-02-27 04:53:50,[105216|0]
507,2026-02-27 04:53:50,[105267|0]
508,2026-02-27 04:53:50,[105326|0]
509,2026-02-27 04:53:50,[105395|0]
510,2026-02-27 04:53:50,[105461|0]
511,2026-02-27 04:53:50,[105516|0]
512,2026-02-27 04:53:50,[105573|0]
513,2026-02-27 04:53:50,[105645|0]
514,2026-02-27 04:53:50,[105703|0]
515,2026-02-27 04:53:50,[105574|0]
516,2026-02-27 04:53:50,[105125|0]
517,2026-02-27 04:53:50,[104746|0]
518,2026-02-27 04:53:50,[104598|0]
519,2026-02-27 04:53:50,[104606|0]
520,2026-02-27 04:53:50,[104642|0]
521,2026-02-27 04:53:50,[104643|0]
522,2026-02-27 04:53:50,[104695|0]
523,2026-02-27 04:53:50,[104709|0]
524,2026-02-27 04:53:51,[104693|0]
525,2026-02-27 04:53:51,[104714|0]
526,2026-02-27 04:53:51,[104777|0]
527,2026-02-27 04:53:51,[104851|0]
528,2026-02-27 04:53:51,[104938|0]
529,2026-02-27 04:53:51,[104938|0]
530,2026-02-27 04:53:51,[105016|0]
531,2026-02-27 04:53:51,[105055|0]
532,2026-02-27 04:53:51,[105138|0]
533,2026-02-27 04:53:51,[105203|0]
534,2026-02-27 04:53:51,[105262|0]
535,2026-02-27 04:53:51,[105343|0]
536,2026-02-27 04:53:51,[105408|0]
537,2026-02-27 04:53:51,[105470|0]
538,2026-02-27 04:53:51,[105548|0]
539,2026-02-27 04:53:51,[105619|0]
540,2026-02-27 04:53:51,[105683|0]
541,2026-02-27 04:53:51,[105736|0]
542,2026-02-27 04:53:51,[105795|0]
543,2026-02-27 04:53:51,[105815|0]
544,2026-02-27 04:53:51,[105542|0]
545,2026-02-27 04:53:51,[105062|0]
546,2026-02-27 04:53:51,[104781|0]
547,2026-02-27 04:53:51,[104732|0]
548,2026-02-27 04:53:51,[104769|0]
549,2026-02-27 04:53:51,[104742|0]
550,2026-02-27 04:53:52,[104781|0]
551,2026-02-27 04:53:52,[104813|0]
552,2026-02-27 04:53:52,[104802|0]
553,2026-02-27 04:53:52,[104796|0]
554,2026-02-27 04:53:52,[104840|0]
555,2026-02-27 04:53:52,[104886|0]
556,2026-02-27 04:53:52,[104976|0]
557,2026-02-27 04:53:52,[105062|0]
558,2026-02-27 04:53:52,[105133|0]
559,2026-02-27 04:53:52,[105179|0]
560,2026-02-27 04:53:52,[105241|0]
561,2026-02-27 04:53:52,[105261|0]
562,2026-02-27 04:53:52,[105335|0]
563,2026-02-27 04:53:52,[105396|0]
564,2026-02-27 04:53:52,[105462|0]
565,2026-02-27 04:53:52,[105524|0]
566,2026-02-27 04:53:52,[105581|0]
567,2026-02-27 04:53:52,[105628|0]
568,2026-02-27 04:53:52,[105713|0]
569,2026-02-27 04:53:52,[105773|0]
570,2026-02-27 04:53:52,[105582|0]
571,2026-02-27 04:53:52,[105126|0]
572,2026-02-27 04:53:52,[104808|0]
573,2026-02-27 04:53:52,[104670|0]
574,2026-02-27 04:53:53,[104730|0]
575,2026-02-27 04:53:53,[104774|0]
576,2026-02-27 04:53:53,[104810|0]
577,2026-02-27 04:53:53,[104863|0]
578,2026-02-27 04:53:53,[104850|0]
579,2026-02-27 04:53:53,[104813|0]
580,2026-02-27 04:53:53,[104835|0]
581,2026-02-27 04:53:53,[104898|0]
582,2026-02-27 04:53:53,[104995|0]
583,2026-02-27 04:53:53,[105076|0]
584,2026-02-27 04:53:53,[105150|0]
585,2026-02-27 04:53:53,[105189|0]
586,2026-02-27 04:53:53,[105255|0]
587,2026-02-27 04:53:53,[105292|0]
588,2026-02-27 04:53:53,[105354|0]
589,2026-02-27 04:53:53,[105439|0]
590,2026-02-27 04:53:53,[105498|0]
591,2026-02-27 04:53:53,[105563|0]
592,2026-02-27 04:53:53,[105631|0]
593,2026-02-27 04:53:53,[105707|0]
594,2026-02-27 04:53:53,[105774|0]
595,2026-02-27 04:53:53,[105827|0]
596,2026-02-27 04:53:53,[105874|0]
597,2026-02-27 04:53:53,[105569|0]
598,2026-02-27 04:53:53,[105092|0]
599,2026-02-27 04:53:54,[104794|0]
600,2026-02-27 04:53:54,[104740|0]
601,2026-02-27 04:53:54,[104776|0]
602,2026-02-27 04:53:54,[104774|0]
603,2026-02-27 04:53:54,[104802|0]
604,2026-02-27 04:53:54,[104852|0]
605,2026-02-27 04:53:54,[104856|0]
606,2026-02-27 04:53:54,[104845|0]
607,2026-02-27 04:53:54,[104863|0]
608,2026-02-27 04:53:54,[104913|0]
609,2026-02-27 04:53:54,[104975|0]
610,2026-02-27 04:53:54,[105074|0]
611,2026-02-27 04:53:54,[105158|0]
612,2026-02-27 04:53:54,[105206|0]
613,2026-02-27 04:53:54,[105251|0]
614,2026-02-27 04:53:54,[105290|0]
615,2026-02-27 04:53:54,[105316|0]
616,2026-02-27 04:53:54,[105401|0]
617,2026-02-27 04:53:54,[105486|0]
618,2026-02-27 04:53:54,[105547|0]
619,2026-02-27 04:53:54,[105611|0]
620,2026-02-27 04:53:54,[105671|0]
621,2026-02-27 04:53:54,[105725|0]
622,2026-02-27 04:53:54,[105805|0]
623,2026-02-27 04:53:54,[105841|0]
624,2026-02-27 04:53:54,[105545|0]
625,2026-02-27 04:53:55,[105079|0]
626,2026-02-27 04:53:55,[104775|0]
627,2026-02-27 04:53:55,[104728|0]
628,2026-02-27 04:53:55,[104778|0]
629,2026-02-27 04:53:55,[104834|0]
630,2026-02-27 04:53:55,[104883|0]
631,2026-02-27 04:53:55,[104904|0]
632,2026-02-27 04:53:55,[104876|0]
633,2026-02-27 04:53:55,[104863|0]
634,2026-02-27 04:53:55,[104895|0]
635,2026-02-27 04:53:55,[104951|0]
636,2026-02-27 04:53:55,[105028|0]
637,2026-02-27 04:53:55,[105122|0]
638,2026-02-27 04:53:55,[105179|0]
639,2026-02-27 04:53:55,[105230|0]
640,2026-02-27 04:53:55,[105280|0]
641,2026-02-27 04:53:55,[105320|0]
642,2026-02-27 04:53:55,[105320|0]
643,2026-02-27 04:53:55,[105357|0]
644,2026-02-27 04:53:55,[105419|0]
645,2026-02-27 04:53:55,[105484|0]
646,2026-02-27 04:53:55,[105554|0]
647,2026-02-27 04:53:55,[105611|0]
648,2026-02-27 04:53:55,[105679|0]
649,2026-02-27 04:53:56,[105726|0]
650,2026-02-27 04:53:56,[105452|0]
651,2026-02-27 04:53:56,[104972|0]
652,2026-02-27 04:53:56,[104679|0]
653,2026-02-27 04:53:56,[104628|0]
654,2026-02-27 04:53:56,[104677|0]
655,2026-02-27 04:53:56,[104719|0]
656,2026-02-27 04:53:56,[104767|0]
657,2026-02-27 04:53:56,[104791|0]
658,2026-02-27 04:53:56,[104783|0]
659,2026-02-27 04:53:56,[104760|0]
660,2026-02-27 04:53:56,[104783|0]
661,2026-02-27 04:53:56,[104839|0]
662,2026-02-27 04:53:56,[104928|0]
663,2026-02-27 04:53:56,[104985|0]
664,2026-02-27 04:53:56,[105064|0]
665,2026-02-27 04:53:56,[105118|0]
666,2026-02-27 04:53:56,[105162|0]
667,2026-02-27 04:53:56,[105200|0]
668,2026-02-27 04:53:56,[105244|0]
669,2026-02-27 04:53:56,[105287|0]
670,2026-02-27 04:53:56,[105378|0]
671,2026-02-27 04:53:56,[105429|0]
672,2026-02-27 04:53:56,[105501|0]
673,2026-02-27 04:53:56,[105559|0]
674,2026-02-27 04:53:57,[105624|0]
675,2026-02-27 04:53:57,[105415|0]
676,2026-02-27 04:53:57,[104935|0]
677,2026-02-27 04:53:57,[104567|0]
678,2026-02-27 04:53:57,[104447|0]
679,2026-02-27 04:53:57,[104470|0]
680,2026-02-27 04:53:57,[104484|0]
681,2026-02-27 04:53:57,[104491|0]
682,2026-02-27 04:53:57,[104536|0]
683,2026-02-27 04:53:57,[104529|0]
684,2026-02-27 04:53:57,[104513|0]
685,2026-02-27 04:53:57,[104516|0]
686,2026-02-27 04:53:57,[104567|0]
687,2026-02-27 04:53:57,[104641|0]
688,2026-02-27 04:53:57,[104738|0]
689,2026-02-27 04:53:57,[104818|0]
690,2026-02-27 04:53:57,[104873|0]
691,2026-02-27 04:53:57,[104917|0]
692,2026-02-27 04:53:57,[104961|0]
693,2026-02-27 04:53:57,[104993|0]
694,2026-02-27 04:53:57,[105080|0]
695,2026-02-27 04:53:57,[105145|0]
696,2026-02-27 04:53:57,[105223|0]
697,2026-02-27 04:53:57,[105289|0]
698,2026-02-27 04:53:57,[105363|0]
699,2026-02-27 04:53:57,[105410|0]
700,2026-02-27 04:53:58,[105355|0]
701,2026-02-27 04:53:58,[104937|0]
702,2026-02-27 04:53:58,[104554|0]
703,2026-02-27 04:53:58,[104395|0]
704,2026-02-27 04:53:58,[104404|0]
705,2026-02-27 04:53:58,[104444|0]
706,2026-02-27 04:53:58,[104468|0]
707,2026-02-27 04:53:58,[104527|0]
708,2026-02-27 04:53:58,[104520|0]
709,2026-02-27 04:53:58,[104488|0]
710,2026-02-27 04:53:58,[104485|0]
711,2026-02-27 04:53:58,[104515|0]
712,2026-02-27 04:53:58,[104615|0]
713,2026-02-27 04:53:58,[104698|0]
714,2026-02-27 04:53:58,[104768|0]
715,2026-02-27 04:53:58,[104826|0]
716,2026-02-27 04:53:58,[104865|0]
717,2026-02-27 04:53:58,[104907|0]
718,2026-02-27 04:53:58,[104975|0]
719,2026-02-27 04:53:58,[105030|0]
720,2026-02-27 04:53:58,[105097|0]
721,2026-02-27 04:53:58,[105171|0]
722,2026-02-27 04:53:58,[105228|0]
723,2026-02-27 04:53:59,[105292|0]
724,2026-02-27 04:53:59,[105250|0]
725,2026-02-27 04:53:59,[104844|0]
726,2026-02-27 04:53:59,[104412|0]
727,2026-02-27 04:53:59,[104238|0]
728,2026-02-27 04:53:59,[104185|0]
729,2026-02-27 04:53:59,[104176|0]
730,2026-02-27 04:53:59,[104137|0]
731,2026-02-27 04:53:59,[104197|0]
732,2026-02-27 04:53:59,[104186|0]
733,2026-02-27 04:53:59,[104169|0]
734,2026-02-27 04:53:59,[104165|0]
735,2026-02-27 04:53:59,[104206|0]
736,2026-02-27 04:53:59,[104301|0]
737,2026-02-27 04:53:59,[104384|0]
738,2026-02-27 04:53:59,[104489|0]
739,2026-02-27 04:53:59,[104563|0]
740,2026-02-27 04:53:59,[104595|0]
741,2026-02-27 04:53:59,[104663|0]
742,2026-02-27 04:53:59,[104741|0]
743,2026-02-27 04:53:59,[104815|0]
744,2026-02-27 04:53:59,[104893|0]
745,2026-02-27 04:53:59,[104964|0]
746,2026-02-27 04:53:59,[105016|0]
747,2026-02-27 04:53:59,[105088|0]
748,2026-02-27 04:53:59,[105178|0]
749,2026-02-27 04:54:00,[105161|0]
750,2026-02-27 04:54:00,[104763|0]
751,2026-02-27 04:54:00,[104312|0]
752,2026-02-27 04:54:00,[104078|0]
753,2026-02-27 04:54:00,[104072|0]
754,2026-02-27 04:54:00,[104103|0]
755,2026-02-27 04:54:00,[104102|0]
756,2026-02-27 04:54:00,[104102|0]
757,2026-02-27 04:54:00,[104134|0]
758,2026-02-27 04:54:00,[104173|0]
759,2026-02-27 04:54:00,[104162|0]
760,2026-02-27 04:54:00,[104162|0]
761,2026-02-27 04:54:00,[104201|0]
762,2026-02-27 04:54:00,[104274|0]
763,2026-02-27 04:54:00,[104349|0]
764,2026-02-27 04:54:00,[104439|0]
765,2026-02-27 04:54:00,[104498|0]
766,2026-02-27 04:54:00,[104571|0]
767,2026-02-27 04:54:00,[104609|0]
768,2026-02-27 04:54:00,[104658|0]
769,2026-02-27 04:54:00,[104725|0]
770,2026-02-27 04:54:00,[104806|0]
771,2026-02-27 04:54:00,[104861|0]
772,2026-02-27 04:54:00,[104932|0]
773,2026-02-27 04:54:00,[104997|0]
774,2026-02-27 04:54:01,[105067|0]
775,2026-02-27 04:54:01,[105126|0]
776,2026-02-27 04:54:01,[105009|0]
777,2026-02-27 04:54:01,[104545|0]
778,2026-02-27 04:54:01,[104191|0]
779,2026-02-27 04:54:01,[104066|0]
780,2026-02-27 04:54:01,[104107|0]
781,2026-02-27 04:54:01,[104157|0]
782,2026-02-27 04:54:01,[104206|0]
783,2026-02-27 04:54:01,[104239|0]
784,2026-02-27 04:54:01,[104249|0]
785,2026-02-27 04:54:01,[104229|0]
786,2026-02-27 04:54:01,[104229|0]
787,2026-02-27 04:54:01,[104296|0]
788,2026-02-27 04:54:01,[104376|0]
789,2026-02-27 04:54:01,[104460|0]
790,2026-02-27 04:54:01,[104550|0]
791,2026-02-27 04:54:01,[104601|0]
792,2026-02-27 04:54:01,[104653|0]
793,2026-02-27 04:54:01,[104704|0]
794,2026-02-27 04:54:01,[104763|0]
795,2026-02-27 04:54:01,[104808|0]
796,2026-02-27 04:54:01,[104892|0]
797,2026-02-27 04:54:01,[104969|0]
798,2026-02-27 04:54:01,[105034|0]
799,2026-02-27 04:54:02,[105099|0]
800,2026-02-27 04:54:02,[105171|0]
801,2026-02-27 04:54:02,[105181|0]
802,2026-02-27 04:54:02,[104893|0]
803,2026-02-27 04:54:02,[104383|0]
804,2026-02-27 04:54:02,[104081|0]
805,2026-02-27 04:54:02,[104013|0]
806,2026-02-27 04:54:02,[104017|0]
807,2026-02-27 04:54:02,[103999|0]
808,2026-02-27 04:54:02,[104016|0]
809,2026-02-27 04:54:02,[104059|0]
810,2026-02-27 04:54:02,[104072|0]
811,2026-02-27 04:54:02,[104058|0]
812,2026-02-27 04:54:02,[104077|0]
813,2026-02-27 04:54:02,[104117|0]
814,2026-02-27 04:54:02,[104218|0]
815,2026-02-27 04:54:02,[104326|0]
816,2026-02-27 04:54:02,[104400|0]
817,2026-02-27 04:54:02,[104449|0]
818,2026-02-27 04:54:02,[104493|0]
819,2026-02-27 04:54:02,[104527|0]
820,2026-02-27 04:54:02,[104601|0]
821,2026-02-27 04:54:02,[104668|0]
822,2026-02-27 04:54:02,[104746|0]
823,2026-02-27 04:54:02,[104818|0]
824,2026-02-27 04:54:03,[104885|0]
825,2026-02-27 04:54:03,[104949|0]
826,2026-02-27 04:54:03,[105030|0]
827,2026-02-27 04:54:03,[105095|0]
828,2026-02-27 04:54:03,[105170|0]
829,2026-02-27 04:54:03,[105119|0]
