Packet_Number,Timestamp,Data
1,2026-02-02 14:20:44,[111647|0]
2,2026-02-02 14:20:44,[111651|0]
3,2026-02-02 14:20:44,[111666|0]
4,2026-02-02 14:20:44,[111695|0]
5,2026-02-02 14:20:44,[111662|0]
6,2026-02-02 14:20:44,[111701|0]
7,2026-02-02 14:20:44,[111726|0]
8,2026-02-02 14:20:44,[111763|0]
9,2026-02-02 14:20:45,[111759|0]
10,2026-02-02 14:20:45,[111742|0]
11,2026-02-02 14:20:45,[111716|0]
12,2026-02-02 14:20:45,[111673|0]
13,2026-02-02 14:20:45,[111579|0]
14,2026-02-02 14:20:45,[111455|0]
15,2026-02-02 14:20:45,[111459|0]
16,2026-02-02 14:20:45,[111484|0]
17,2026-02-02 14:20:45,[111513|0]
18,2026-02-02 14:20:45,[111552|0]
19,2026-02-02 14:20:45,[111572|0]
20,2026-02-02 14:20:45,[111579|0]
21,2026-02-02 14:20:45,[111596|0]
22,2026-02-02 14:20:45,[111664|0]
23,2026-02-02 14:20:45,[111704|0]
24,2026-02-02 14:20:45,[111794|0]
25,2026-02-02 14:20:45,[111850|0]
26,2026-02-02 14:20:45,[111845|0]
27,2026-02-02 14:20:45,[111862|0]
28,2026-02-02 14:20:45,[111864|0]
29,2026-02-02 14:20:45,[111826|0]
30,2026-02-02 14:20:45,[111903|0]
31,2026-02-02 14:20:45,[112009|0]
32,2026-02-02 14:20:45,[111945|0]
33,2026-02-02 14:20:45,[111839|0]
34,2026-02-02 14:20:46,[111588|0]
35,2026-02-02 14:20:46,[111572|0]
36,2026-02-02 14:20:46,[111731|0]
37,2026-02-02 14:20:46,[111854|0]
38,2026-02-02 14:20:46,[111968|0]
39,2026-02-02 14:20:46,[111966|0]
40,2026-02-02 14:20:46,[111999|0]
41,2026-02-02 14:20:46,[111952|0]
42,2026-02-02 14:20:46,[111870|0]
43,2026-02-02 14:20:46,[111841|0]
44,2026-02-02 14:20:46,[111767|0]
45,2026-02-02 14:20:46,[111745|0]
46,2026-02-02 14:20:46,[111716|0]
47,2026-02-02 14:20:46,[111818|0]
48,2026-02-02 14:20:46,[111932|0]
49,2026-02-02 14:20:46,[112088|0]
50,2026-02-02 14:20:46,[112094|0]
51,2026-02-02 14:20:46,[112048|0]
52,2026-02-02 14:20:46,[111898|0]
53,2026-02-02 14:20:46,[111785|0]
54,2026-02-02 14:20:46,[111752|0]
55,2026-02-02 14:20:46,[111715|0]
56,2026-02-02 14:20:46,[111711|0]
57,2026-02-02 14:20:46,[111670|0]
58,2026-02-02 14:20:46,[111632|0]
59,2026-02-02 14:20:46,[111640|0]
60,2026-02-02 14:20:47,[111687|0]
61,2026-02-02 14:20:47,[111680|0]
62,2026-02-02 14:20:47,[111680|0]
63,2026-02-02 14:20:47,[111678|0]
64,2026-02-02 14:20:47,[111645|0]
65,2026-02-02 14:20:47,[111612|0]
66,2026-02-02 14:20:47,[111646|0]
67,2026-02-02 14:20:47,[111653|0]
68,2026-02-02 14:20:47,[111634|0]
69,2026-02-02 14:20:47,[111651|0]
70,2026-02-02 14:20:47,[111623|0]
71,2026-02-02 14:20:47,[111272|0]
72,2026-02-02 14:20:47,[110827|0]
73,2026-02-02 14:20:47,[110732|0]
74,2026-02-02 14:20:47,[110909|0]
75,2026-02-02 14:20:47,[111120|0]
76,2026-02-02 14:20:47,[111246|0]
77,2026-02-02 14:20:47,[111262|0]
78,2026-02-02 14:20:47,[111252|0]
79,2026-02-02 14:20:47,[111217|0]
80,2026-02-02 14:20:47,[111285|0]
81,2026-02-02 14:20:47,[111357|0]
82,2026-02-02 14:20:47,[111431|0]
83,2026-02-02 14:20:47,[111452|0]
84,2026-02-02 14:20:48,[111521|0]
85,2026-02-02 14:20:48,[111552|0]
86,2026-02-02 14:20:48,[111591|0]
87,2026-02-02 14:20:48,[111591|0]
88,2026-02-02 14:20:48,[111607|0]
89,2026-02-02 14:20:48,[111515|0]
90,2026-02-02 14:20:48,[111070|0]
91,2026-02-02 14:20:48,[110695|0]
92,2026-02-02 14:20:48,[110717|0]
93,2026-02-02 14:20:48,[110859|0]
94,2026-02-02 14:20:48,[111116|0]
95,2026-02-02 14:20:48,[111249|0]
96,2026-02-02 14:20:48,[111314|0]
97,2026-02-02 14:20:48,[111254|0]
98,2026-02-02 14:20:48,[111195|0]
99,2026-02-02 14:20:48,[111241|0]
100,2026-02-02 14:20:48,[111274|0]
101,2026-02-02 14:20:48,[111332|0]
102,2026-02-02 14:20:48,[111432|0]
103,2026-02-02 14:20:48,[111443|0]
104,2026-02-02 14:20:48,[111477|0]
105,2026-02-02 14:20:48,[111485|0]
106,2026-02-02 14:20:48,[111506|0]
107,2026-02-02 14:20:48,[111469|0]
108,2026-02-02 14:20:48,[111086|0]
109,2026-02-02 14:20:49,[110726|0]
110,2026-02-02 14:20:49,[110791|0]
111,2026-02-02 14:20:49,[110967|0]
112,2026-02-02 14:20:49,[111162|0]
113,2026-02-02 14:20:49,[111282|0]
114,2026-02-02 14:20:49,[111358|0]
115,2026-02-02 14:20:49,[111304|0]
116,2026-02-02 14:20:49,[111253|0]
117,2026-02-02 14:20:49,[111309|0]
118,2026-02-02 14:20:49,[111358|0]
119,2026-02-02 14:20:49,[111379|0]
120,2026-02-02 14:20:49,[111465|0]
121,2026-02-02 14:20:49,[111499|0]
122,2026-02-02 14:20:49,[111553|0]
123,2026-02-02 14:20:49,[111545|0]
124,2026-02-02 14:20:49,[111515|0]
125,2026-02-02 14:20:49,[111464|0]
126,2026-02-02 14:20:49,[111352|0]
127,2026-02-02 14:20:49,[110768|0]
128,2026-02-02 14:20:49,[110495|0]
129,2026-02-02 14:20:49,[110595|0]
130,2026-02-02 14:20:49,[110791|0]
131,2026-02-02 14:20:49,[110931|0]
132,2026-02-02 14:20:49,[111092|0]
133,2026-02-02 14:20:50,[111061|0]
134,2026-02-02 14:20:50,[110942|0]
135,2026-02-02 14:20:50,[110913|0]
136,2026-02-02 14:20:50,[110906|0]
137,2026-02-02 14:20:50,[111000|0]
138,2026-02-02 14:20:50,[111118|0]
139,2026-02-02 14:20:50,[111135|0]
140,2026-02-02 14:20:50,[111177|0]
141,2026-02-02 14:20:50,[111221|0]
142,2026-02-02 14:20:50,[111203|0]
143,2026-02-02 14:20:50,[111235|0]
144,2026-02-02 14:20:50,[111221|0]
145,2026-02-02 14:20:50,[110800|0]
146,2026-02-02 14:20:50,[110513|0]
147,2026-02-02 14:20:50,[110487|0]
148,2026-02-02 14:20:50,[110592|0]
149,2026-02-02 14:20:50,[110782|0]
150,2026-02-02 14:20:50,[110987|0]
151,2026-02-02 14:20:50,[110994|0]
152,2026-02-02 14:20:50,[110871|0]
153,2026-02-02 14:20:50,[110783|0]
154,2026-02-02 14:20:50,[110787|0]
155,2026-02-02 14:20:50,[110919|0]
156,2026-02-02 14:20:50,[111004|0]
157,2026-02-02 14:20:50,[111058|0]
158,2026-02-02 14:20:50,[111157|0]
159,2026-02-02 14:20:51,[111158|0]
160,2026-02-02 14:20:51,[111134|0]
161,2026-02-02 14:20:51,[111172|0]
162,2026-02-02 14:20:51,[111215|0]
163,2026-02-02 14:20:51,[111131|0]
164,2026-02-02 14:20:51,[110634|0]
165,2026-02-02 14:20:51,[110198|0]
166,2026-02-02 14:20:51,[109952|0]
167,2026-02-02 14:20:51,[110103|0]
168,2026-02-02 14:20:51,[110278|0]
169,2026-02-02 14:20:51,[110309|0]
170,2026-02-02 14:20:51,[110289|0]
171,2026-02-02 14:20:51,[110297|0]
172,2026-02-02 14:20:51,[110208|0]
173,2026-02-02 14:20:51,[110211|0]
174,2026-02-02 14:20:51,[110352|0]
175,2026-02-02 14:20:51,[110352|0]
176,2026-02-02 14:20:51,[110410|0]
177,2026-02-02 14:20:51,[110456|0]
178,2026-02-02 14:20:51,[110543|0]
179,2026-02-02 14:20:51,[110571|0]
180,2026-02-02 14:20:51,[110575|0]
181,2026-02-02 14:20:51,[110544|0]
182,2026-02-02 14:20:51,[110579|0]
183,2026-02-02 14:20:51,[110652|0]
184,2026-02-02 14:20:52,[110653|0]
185,2026-02-02 14:20:52,[110185|0]
186,2026-02-02 14:20:52,[109682|0]
187,2026-02-02 14:20:52,[109706|0]
188,2026-02-02 14:20:52,[109909|0]
189,2026-02-02 14:20:52,[110039|0]
190,2026-02-02 14:20:52,[110200|0]
191,2026-02-02 14:20:52,[110189|0]
192,2026-02-02 14:20:52,[110155|0]
193,2026-02-02 14:20:52,[110127|0]
194,2026-02-02 14:20:52,[110157|0]
195,2026-02-02 14:20:52,[110151|0]
196,2026-02-02 14:20:52,[110152|0]
197,2026-02-02 14:20:52,[110252|0]
198,2026-02-02 14:20:52,[110310|0]
199,2026-02-02 14:20:52,[110295|0]
200,2026-02-02 14:20:52,[110345|0]
201,2026-02-02 14:20:52,[110359|0]
202,2026-02-02 14:20:52,[110374|0]
203,2026-02-02 14:20:52,[110407|0]
204,2026-02-02 14:20:52,[110165|0]
205,2026-02-02 14:20:52,[109604|0]
206,2026-02-02 14:20:52,[109449|0]
207,2026-02-02 14:20:52,[109550|0]
208,2026-02-02 14:20:53,[109678|0]
209,2026-02-02 14:20:53,[109830|0]
210,2026-02-02 14:20:53,[109957|0]
211,2026-02-02 14:20:53,[109853|0]
212,2026-02-02 14:20:53,[109809|0]
213,2026-02-02 14:20:53,[109760|0]
214,2026-02-02 14:20:53,[109783|0]
215,2026-02-02 14:20:53,[109963|0]
216,2026-02-02 14:20:53,[110074|0]
217,2026-02-02 14:20:53,[110136|0]
218,2026-02-02 14:20:53,[110241|0]
219,2026-02-02 14:20:53,[110221|0]
220,2026-02-02 14:20:53,[110249|0]
221,2026-02-02 14:20:53,[110325|0]
222,2026-02-02 14:20:53,[110411|0]
223,2026-02-02 14:20:53,[110420|0]
224,2026-02-02 14:20:53,[110377|0]
225,2026-02-02 14:20:53,[109938|0]
226,2026-02-02 14:20:53,[109428|0]
227,2026-02-02 14:20:53,[109342|0]
228,2026-02-02 14:20:53,[109554|0]
229,2026-02-02 14:20:53,[109702|0]
230,2026-02-02 14:20:53,[109771|0]
231,2026-02-02 14:20:53,[109831|0]
232,2026-02-02 14:20:53,[109753|0]
233,2026-02-02 14:20:53,[109614|0]
234,2026-02-02 14:20:54,[109771|0]
235,2026-02-02 14:20:54,[109941|0]
236,2026-02-02 14:20:54,[110013|0]
237,2026-02-02 14:20:54,[110161|0]
238,2026-02-02 14:20:54,[110314|0]
239,2026-02-02 14:20:54,[110297|0]
240,2026-02-02 14:20:54,[110306|0]
241,2026-02-02 14:20:54,[110364|0]
242,2026-02-02 14:20:54,[110337|0]
243,2026-02-02 14:20:54,[110339|0]
244,2026-02-02 14:20:54,[110442|0]
245,2026-02-02 14:20:54,[110610|0]
246,2026-02-02 14:20:54,[110300|0]
247,2026-02-02 14:20:54,[109630|0]
248,2026-02-02 14:20:54,[109561|0]
249,2026-02-02 14:20:54,[109628|0]
250,2026-02-02 14:20:54,[109780|0]
251,2026-02-02 14:20:54,[110051|0]
252,2026-02-02 14:20:54,[110176|0]
253,2026-02-02 14:20:54,[110095|0]
254,2026-02-02 14:20:54,[110039|0]
255,2026-02-02 14:20:54,[110023|0]
256,2026-02-02 14:20:54,[110057|0]
257,2026-02-02 14:20:54,[110126|0]
258,2026-02-02 14:20:54,[110214|0]
259,2026-02-02 14:20:55,[110280|0]
260,2026-02-02 14:20:55,[110346|0]
261,2026-02-02 14:20:55,[110347|0]
262,2026-02-02 14:20:55,[110301|0]
263,2026-02-02 14:20:55,[110369|0]
264,2026-02-02 14:20:55,[110419|0]
265,2026-02-02 14:20:55,[110443|0]
266,2026-02-02 14:20:55,[110431|0]
267,2026-02-02 14:20:55,[109986|0]
268,2026-02-02 14:20:55,[109552|0]
269,2026-02-02 14:20:55,[109552|0]
270,2026-02-02 14:20:55,[109750|0]
271,2026-02-02 14:20:55,[109939|0]
272,2026-02-02 14:20:55,[110051|0]
273,2026-02-02 14:20:55,[110076|0]
274,2026-02-02 14:20:55,[109982|0]
275,2026-02-02 14:20:55,[109921|0]
276,2026-02-02 14:20:55,[109978|0]
277,2026-02-02 14:20:55,[110030|0]
278,2026-02-02 14:20:55,[110070|0]
279,2026-02-02 14:20:55,[110144|0]
280,2026-02-02 14:20:55,[110220|0]
281,2026-02-02 14:20:55,[110318|0]
282,2026-02-02 14:20:55,[110439|0]
283,2026-02-02 14:20:56,[110423|0]
284,2026-02-02 14:20:56,[110461|0]
285,2026-02-02 14:20:56,[110533|0]
286,2026-02-02 14:20:56,[110498|0]
287,2026-02-02 14:20:56,[110441|0]
288,2026-02-02 14:20:56,[110441|0]
289,2026-02-02 14:20:56,[110017|0]
290,2026-02-02 14:20:56,[109583|0]
291,2026-02-02 14:20:56,[109550|0]
292,2026-02-02 14:20:56,[109710|0]
293,2026-02-02 14:20:56,[109868|0]
294,2026-02-02 14:20:56,[109996|0]
295,2026-02-02 14:20:56,[110077|0]
296,2026-02-02 14:20:56,[109976|0]
297,2026-02-02 14:20:56,[109902|0]
298,2026-02-02 14:20:56,[109924|0]
299,2026-02-02 14:20:56,[109903|0]
300,2026-02-02 14:20:56,[109983|0]
301,2026-02-02 14:20:56,[110101|0]
302,2026-02-02 14:20:56,[110191|0]
303,2026-02-02 14:20:56,[110272|0]
304,2026-02-02 14:20:56,[110342|0]
305,2026-02-02 14:20:56,[110350|0]
306,2026-02-02 14:20:56,[110382|0]
307,2026-02-02 14:20:56,[110394|0]
308,2026-02-02 14:20:56,[110436|0]
309,2026-02-02 14:20:57,[110344|0]
310,2026-02-02 14:20:57,[109825|0]
311,2026-02-02 14:20:57,[109371|0]
312,2026-02-02 14:20:57,[109391|0]
313,2026-02-02 14:20:57,[109599|0]
314,2026-02-02 14:20:57,[109776|0]
315,2026-02-02 14:20:57,[109841|0]
316,2026-02-02 14:20:57,[109950|0]
317,2026-02-02 14:20:57,[109878|0]
318,2026-02-02 14:20:57,[109919|0]
319,2026-02-02 14:20:57,[110099|0]
320,2026-02-02 14:20:57,[110183|0]
321,2026-02-02 14:20:57,[110238|0]
322,2026-02-02 14:20:57,[110319|0]
323,2026-02-02 14:20:57,[110291|0]
324,2026-02-02 14:20:57,[110313|0]
325,2026-02-02 14:20:57,[110307|0]
326,2026-02-02 14:20:57,[110312|0]
327,2026-02-02 14:20:57,[110347|0]
328,2026-02-02 14:20:57,[109976|0]
329,2026-02-02 14:20:57,[109458|0]
330,2026-02-02 14:20:57,[109434|0]
331,2026-02-02 14:20:57,[109570|0]
332,2026-02-02 14:20:57,[109730|0]
333,2026-02-02 14:20:57,[109826|0]
334,2026-02-02 14:20:58,[109895|0]
335,2026-02-02 14:20:58,[109822|0]
336,2026-02-02 14:20:58,[109819|0]
337,2026-02-02 14:20:58,[109818|0]
338,2026-02-02 14:20:58,[109799|0]
339,2026-02-02 14:20:58,[109914|0]
340,2026-02-02 14:20:58,[110063|0]
341,2026-02-02 14:20:58,[110182|0]
342,2026-02-02 14:20:58,[110256|0]
343,2026-02-02 14:20:58,[110261|0]
344,2026-02-02 14:20:58,[110355|0]
345,2026-02-02 14:20:58,[110406|0]
346,2026-02-02 14:20:58,[110489|0]
347,2026-02-02 14:20:58,[110337|0]
348,2026-02-02 14:20:58,[109754|0]
349,2026-02-02 14:20:58,[109425|0]
350,2026-02-02 14:20:58,[109499|0]
351,2026-02-02 14:20:58,[109592|0]
352,2026-02-02 14:20:58,[109649|0]
353,2026-02-02 14:20:58,[109703|0]
354,2026-02-02 14:20:58,[109747|0]
355,2026-02-02 14:20:58,[109789|0]
356,2026-02-02 14:20:58,[109770|0]
357,2026-02-02 14:20:58,[109770|0]
358,2026-02-02 14:20:59,[109879|0]
359,2026-02-02 14:20:59,[109957|0]
360,2026-02-02 14:20:59,[109978|0]
361,2026-02-02 14:20:59,[110037|0]
362,2026-02-02 14:20:59,[110075|0]
363,2026-02-02 14:20:59,[110030|0]
364,2026-02-02 14:20:59,[110078|0]
365,2026-02-02 14:20:59,[110074|0]
366,2026-02-02 14:20:59,[110043|0]
367,2026-02-02 14:20:59,[109718|0]
368,2026-02-02 14:20:59,[109263|0]
369,2026-02-02 14:20:59,[109106|0]
370,2026-02-02 14:20:59,[109192|0]
371,2026-02-02 14:20:59,[109332|0]
372,2026-02-02 14:20:59,[109358|0]
373,2026-02-02 14:20:59,[109368|0]
374,2026-02-02 14:20:59,[109429|0]
375,2026-02-02 14:20:59,[109378|0]
376,2026-02-02 14:20:59,[109486|0]
377,2026-02-02 14:20:59,[109636|0]
378,2026-02-02 14:20:59,[109746|0]
379,2026-02-02 14:20:59,[109826|0]
380,2026-02-02 14:20:59,[109942|0]
381,2026-02-02 14:20:59,[109961|0]
382,2026-02-02 14:20:59,[109919|0]
383,2026-02-02 14:20:59,[109941|0]
384,2026-02-02 14:21:00,[109916|0]
385,2026-02-02 14:21:00,[109916|0]
386,2026-02-02 14:21:00,[109976|0]
387,2026-02-02 14:21:00,[110011|0]
388,2026-02-02 14:21:00,[109790|0]
389,2026-02-02 14:21:00,[109288|0]
390,2026-02-02 14:21:00,[109149|0]
391,2026-02-02 14:21:00,[109144|0]
392,2026-02-02 14:21:00,[109200|0]
393,2026-02-02 14:21:00,[109337|0]
394,2026-02-02 14:21:00,[109375|0]
395,2026-02-02 14:21:00,[109302|0]
396,2026-02-02 14:21:00,[109277|0]
397,2026-02-02 14:21:00,[109325|0]
398,2026-02-02 14:21:00,[109346|0]
399,2026-02-02 14:21:00,[109399|0]
400,2026-02-02 14:21:00,[109455|0]
401,2026-02-02 14:21:00,[109483|0]
402,2026-02-02 14:21:00,[109483|0]
403,2026-02-02 14:21:00,[109489|0]
404,2026-02-02 14:21:00,[109584|0]
405,2026-02-02 14:21:00,[109626|0]
406,2026-02-02 14:21:00,[109525|0]
407,2026-02-02 14:21:00,[109472|0]
408,2026-02-02 14:21:00,[109605|0]
409,2026-02-02 14:21:01,[109743|0]
410,2026-02-02 14:21:01,[109791|0]
411,2026-02-02 14:21:01,[109609|0]
412,2026-02-02 14:21:01,[109133|0]
413,2026-02-02 14:21:01,[108856|0]
414,2026-02-02 14:21:01,[108901|0]
415,2026-02-02 14:21:01,[108959|0]
416,2026-02-02 14:21:01,[108948|0]
417,2026-02-02 14:21:01,[109030|0]
418,2026-02-02 14:21:01,[109048|0]
419,2026-02-02 14:21:01,[108961|0]
420,2026-02-02 14:21:01,[108982|0]
421,2026-02-02 14:21:01,[109043|0]
422,2026-02-02 14:21:01,[109073|0]
423,2026-02-02 14:21:01,[109145|0]
424,2026-02-02 14:21:01,[109280|0]
425,2026-02-02 14:21:01,[109243|0]
426,2026-02-02 14:21:01,[109292|0]
427,2026-02-02 14:21:01,[109413|0]
428,2026-02-02 14:21:01,[109385|0]
429,2026-02-02 14:21:01,[109413|0]
430,2026-02-02 14:21:01,[109511|0]
431,2026-02-02 14:21:01,[109484|0]
432,2026-02-02 14:21:01,[109508|0]
433,2026-02-02 14:21:02,[109644|0]
434,2026-02-02 14:21:02,[109675|0]
435,2026-02-02 14:21:02,[109267|0]
436,2026-02-02 14:21:02,[108863|0]
437,2026-02-02 14:21:02,[108709|0]
438,2026-02-02 14:21:02,[108675|0]
439,2026-02-02 14:21:02,[108750|0]
440,2026-02-02 14:21:02,[108833|0]
441,2026-02-02 14:21:02,[108793|0]
442,2026-02-02 14:21:02,[108823|0]
443,2026-02-02 14:21:02,[108821|0]
444,2026-02-02 14:21:02,[108802|0]
445,2026-02-02 14:21:02,[108838|0]
446,2026-02-02 14:21:02,[108985|0]
447,2026-02-02 14:21:02,[109035|0]
448,2026-02-02 14:21:02,[109167|0]
449,2026-02-02 14:21:02,[109307|0]
450,2026-02-02 14:21:02,[109287|0]
451,2026-02-02 14:21:02,[109291|0]
452,2026-02-02 14:21:02,[109413|0]
453,2026-02-02 14:21:02,[109367|0]
454,2026-02-02 14:21:02,[109332|0]
455,2026-02-02 14:21:02,[109407|0]
456,2026-02-02 14:21:02,[109468|0]
457,2026-02-02 14:21:02,[109519|0]
458,2026-02-02 14:21:02,[109631|0]
459,2026-02-02 14:21:03,[109165|0]
460,2026-02-02 14:21:03,[108753|0]
461,2026-02-02 14:21:03,[108723|0]
462,2026-02-02 14:21:03,[108804|0]
463,2026-02-02 14:21:03,[108856|0]
464,2026-02-02 14:21:03,[108997|0]
465,2026-02-02 14:21:03,[109068|0]
466,2026-02-02 14:21:03,[109010|0]
467,2026-02-02 14:21:03,[108974|0]
468,2026-02-02 14:21:03,[109041|0]
469,2026-02-02 14:21:03,[109060|0]
470,2026-02-02 14:21:03,[109097|0]
471,2026-02-02 14:21:03,[109285|0]
472,2026-02-02 14:21:03,[109390|0]
473,2026-02-02 14:21:03,[109297|0]
474,2026-02-02 14:21:03,[109253|0]
475,2026-02-02 14:21:03,[109418|0]
476,2026-02-02 14:21:03,[109478|0]
477,2026-02-02 14:21:03,[109483|0]
478,2026-02-02 14:21:03,[109589|0]
479,2026-02-02 14:21:03,[109691|0]
480,2026-02-02 14:21:03,[109406|0]
481,2026-02-02 14:21:03,[108940|0]
482,2026-02-02 14:21:03,[108841|0]
483,2026-02-02 14:21:03,[108819|0]
484,2026-02-02 14:21:04,[108777|0]
485,2026-02-02 14:21:04,[108895|0]
486,2026-02-02 14:21:04,[109136|0]
487,2026-02-02 14:21:04,[109083|0]
488,2026-02-02 14:21:04,[109018|0]
489,2026-02-02 14:21:04,[109054|0]
490,2026-02-02 14:21:04,[109077|0]
491,2026-02-02 14:21:04,[109139|0]
492,2026-02-02 14:21:04,[109274|0]
493,2026-02-02 14:21:04,[109339|0]
494,2026-02-02 14:21:04,[109380|0]
495,2026-02-02 14:21:04,[109417|0]
496,2026-02-02 14:21:04,[109495|0]
497,2026-02-02 14:21:04,[109558|0]
498,2026-02-02 14:21:04,[109578|0]
499,2026-02-02 14:21:04,[109504|0]
500,2026-02-02 14:21:04,[109062|0]
501,2026-02-02 14:21:04,[108787|0]
502,2026-02-02 14:21:04,[108772|0]
503,2026-02-02 14:21:04,[108937|0]
504,2026-02-02 14:21:04,[109058|0]
505,2026-02-02 14:21:04,[109204|0]
506,2026-02-02 14:21:04,[109306|0]
507,2026-02-02 14:21:04,[109224|0]
508,2026-02-02 14:21:05,[109083|0]
509,2026-02-02 14:21:05,[109161|0]
510,2026-02-02 14:21:05,[109331|0]
511,2026-02-02 14:21:05,[109359|0]
512,2026-02-02 14:21:05,[109395|0]
513,2026-02-02 14:21:05,[109395|0]
514,2026-02-02 14:21:05,[109490|0]
515,2026-02-02 14:21:05,[109528|0]
516,2026-02-02 14:21:05,[109562|0]
517,2026-02-02 14:21:05,[109656|0]
518,2026-02-02 14:21:05,[109751|0]
519,2026-02-02 14:21:05,[109782|0]
520,2026-02-02 14:21:05,[109823|0]
521,2026-02-02 14:21:05,[109751|0]
522,2026-02-02 14:21:05,[109056|0]
523,2026-02-02 14:21:05,[108717|0]
524,2026-02-02 14:21:05,[108721|0]
525,2026-02-02 14:21:05,[108764|0]
526,2026-02-02 14:21:05,[108823|0]
527,2026-02-02 14:21:05,[108892|0]
528,2026-02-02 14:21:05,[108972|0]
529,2026-02-02 14:21:05,[108872|0]
530,2026-02-02 14:21:05,[108920|0]
531,2026-02-02 14:21:05,[108967|0]
532,2026-02-02 14:21:05,[108967|0]
533,2026-02-02 14:21:05,[109046|0]
534,2026-02-02 14:21:06,[109221|0]
535,2026-02-02 14:21:06,[109332|0]
536,2026-02-02 14:21:06,[109412|0]
537,2026-02-02 14:21:06,[109442|0]
538,2026-02-02 14:21:06,[109487|0]
539,2026-02-02 14:21:06,[109539|0]
540,2026-02-02 14:21:06,[109654|0]
541,2026-02-02 14:21:06,[109723|0]
542,2026-02-02 14:21:06,[109768|0]
543,2026-02-02 14:21:06,[109755|0]
544,2026-02-02 14:21:06,[109057|0]
545,2026-02-02 14:21:06,[108610|0]
546,2026-02-02 14:21:06,[108652|0]
547,2026-02-02 14:21:06,[108764|0]
548,2026-02-02 14:21:06,[108858|0]
549,2026-02-02 14:21:06,[108967|0]
550,2026-02-02 14:21:06,[109052|0]
551,2026-02-02 14:21:06,[108992|0]
552,2026-02-02 14:21:06,[109042|0]
553,2026-02-02 14:21:06,[109107|0]
554,2026-02-02 14:21:06,[109179|0]
555,2026-02-02 14:21:06,[109283|0]
556,2026-02-02 14:21:06,[109423|0]
557,2026-02-02 14:21:06,[109454|0]
558,2026-02-02 14:21:06,[109554|0]
559,2026-02-02 14:21:07,[109570|0]
560,2026-02-02 14:21:07,[109654|0]
561,2026-02-02 14:21:07,[109701|0]
562,2026-02-02 14:21:07,[109700|0]
563,2026-02-02 14:21:07,[109804|0]
564,2026-02-02 14:21:07,[109907|0]
565,2026-02-02 14:21:07,[109911|0]
566,2026-02-02 14:21:07,[109592|0]
567,2026-02-02 14:21:07,[108874|0]
568,2026-02-02 14:21:07,[108676|0]
569,2026-02-02 14:21:07,[108787|0]
570,2026-02-02 14:21:07,[108992|0]
571,2026-02-02 14:21:07,[109077|0]
572,2026-02-02 14:21:07,[109156|0]
573,2026-02-02 14:21:07,[109190|0]
574,2026-02-02 14:21:07,[109181|0]
575,2026-02-02 14:21:07,[109108|0]
576,2026-02-02 14:21:07,[109197|0]
577,2026-02-02 14:21:07,[109316|0]
578,2026-02-02 14:21:07,[109400|0]
579,2026-02-02 14:21:07,[109449|0]
580,2026-02-02 14:21:07,[109567|0]
581,2026-02-02 14:21:07,[109608|0]
582,2026-02-02 14:21:07,[109634|0]
583,2026-02-02 14:21:07,[109657|0]
584,2026-02-02 14:21:07,[109682|0]
585,2026-02-02 14:21:08,[109688|0]
586,2026-02-02 14:21:08,[109758|0]
587,2026-02-02 14:21:08,[109818|0]
588,2026-02-02 14:21:08,[109636|0]
589,2026-02-02 14:21:08,[108897|0]
590,2026-02-02 14:21:08,[108720|0]
591,2026-02-02 14:21:08,[108772|0]
592,2026-02-02 14:21:08,[108860|0]
593,2026-02-02 14:21:08,[109067|0]
594,2026-02-02 14:21:08,[109281|0]
595,2026-02-02 14:21:08,[109317|0]
596,2026-02-02 14:21:08,[109156|0]
597,2026-02-02 14:21:08,[109061|0]
598,2026-02-02 14:21:08,[109136|0]
599,2026-02-02 14:21:08,[109192|0]
600,2026-02-02 14:21:08,[109235|0]
601,2026-02-02 14:21:08,[109393|0]
602,2026-02-02 14:21:08,[109507|0]
603,2026-02-02 14:21:08,[109511|0]
604,2026-02-02 14:21:08,[109553|0]
605,2026-02-02 14:21:08,[109602|0]
606,2026-02-02 14:21:08,[109606|0]
607,2026-02-02 14:21:08,[109652|0]
608,2026-02-02 14:21:08,[109785|0]
609,2026-02-02 14:21:09,[109870|0]
610,2026-02-02 14:21:09,[109463|0]
611,2026-02-02 14:21:09,[108853|0]
612,2026-02-02 14:21:09,[108737|0]
613,2026-02-02 14:21:09,[108845|0]
614,2026-02-02 14:21:09,[109091|0]
615,2026-02-02 14:21:09,[109218|0]
616,2026-02-02 14:21:09,[109314|0]
617,2026-02-02 14:21:09,[109387|0]
618,2026-02-02 14:21:09,[109314|0]
619,2026-02-02 14:21:09,[109222|0]
620,2026-02-02 14:21:09,[109329|0]
621,2026-02-02 14:21:09,[109444|0]
622,2026-02-02 14:21:09,[109517|0]
623,2026-02-02 14:21:09,[109604|0]
624,2026-02-02 14:21:09,[109680|0]
625,2026-02-02 14:21:09,[109696|0]
626,2026-02-02 14:21:09,[109722|0]
627,2026-02-02 14:21:09,[109722|0]
628,2026-02-02 14:21:09,[109770|0]
629,2026-02-02 14:21:09,[109772|0]
630,2026-02-02 14:21:09,[109806|0]
631,2026-02-02 14:21:09,[109837|0]
632,2026-02-02 14:21:09,[109281|0]
633,2026-02-02 14:21:09,[108890|0]
634,2026-02-02 14:21:10,[108926|0]
635,2026-02-02 14:21:10,[109067|0]
636,2026-02-02 14:21:10,[109321|0]
637,2026-02-02 14:21:10,[109502|0]
638,2026-02-02 14:21:10,[109505|0]
639,2026-02-02 14:21:10,[109401|0]
640,2026-02-02 14:21:10,[109312|0]
641,2026-02-02 14:21:10,[109294|0]
642,2026-02-02 14:21:10,[109427|0]
643,2026-02-02 14:21:10,[109624|0]
644,2026-02-02 14:21:10,[109631|0]
645,2026-02-02 14:21:10,[109641|0]
646,2026-02-02 14:21:10,[109772|0]
647,2026-02-02 14:21:10,[109745|0]
648,2026-02-02 14:21:10,[109790|0]
649,2026-02-02 14:21:10,[109930|0]
650,2026-02-02 14:21:10,[110040|0]
651,2026-02-02 14:21:10,[110048|0]
652,2026-02-02 14:21:10,[109788|0]
653,2026-02-02 14:21:10,[109091|0]
654,2026-02-02 14:21:10,[108946|0]
655,2026-02-02 14:21:10,[109079|0]
656,2026-02-02 14:21:10,[109242|0]
657,2026-02-02 14:21:10,[109449|0]
658,2026-02-02 14:21:11,[109597|0]
659,2026-02-02 14:21:11,[109510|0]
660,2026-02-02 14:21:11,[109447|0]
661,2026-02-02 14:21:11,[109416|0]
662,2026-02-02 14:21:11,[109443|0]
663,2026-02-02 14:21:11,[109580|0]
664,2026-02-02 14:21:11,[109708|0]
665,2026-02-02 14:21:11,[109730|0]
666,2026-02-02 14:21:11,[109797|0]
667,2026-02-02 14:21:11,[109857|0]
668,2026-02-02 14:21:11,[109882|0]
669,2026-02-02 14:21:11,[109905|0]
670,2026-02-02 14:21:11,[109980|0]
671,2026-02-02 14:21:11,[110025|0]
672,2026-02-02 14:21:11,[109865|0]
673,2026-02-02 14:21:11,[109186|0]
674,2026-02-02 14:21:11,[109003|0]
675,2026-02-02 14:21:11,[109093|0]
676,2026-02-02 14:21:11,[109235|0]
677,2026-02-02 14:21:11,[109366|0]
678,2026-02-02 14:21:11,[109492|0]
679,2026-02-02 14:21:11,[109432|0]
680,2026-02-02 14:21:11,[109396|0]
681,2026-02-02 14:21:11,[109383|0]
682,2026-02-02 14:21:11,[109365|0]
683,2026-02-02 14:21:11,[109388|0]
684,2026-02-02 14:21:12,[109505|0]
685,2026-02-02 14:21:12,[109642|0]
686,2026-02-02 14:21:12,[109691|0]
687,2026-02-02 14:21:12,[109757|0]
688,2026-02-02 14:21:12,[109825|0]
689,2026-02-02 14:21:12,[109814|0]
690,2026-02-02 14:21:12,[109882|0]
691,2026-02-02 14:21:12,[109957|0]
692,2026-02-02 14:21:12,[109752|0]
693,2026-02-02 14:21:12,[109079|0]
694,2026-02-02 14:21:12,[108824|0]
695,2026-02-02 14:21:12,[108829|0]
696,2026-02-02 14:21:12,[109034|0]
697,2026-02-02 14:21:12,[109171|0]
698,2026-02-02 14:21:12,[109239|0]
699,2026-02-02 14:21:12,[109272|0]
700,2026-02-02 14:21:12,[109207|0]
701,2026-02-02 14:21:12,[109126|0]
702,2026-02-02 14:21:12,[109118|0]
703,2026-02-02 14:21:12,[109238|0]
704,2026-02-02 14:21:12,[109383|0]
705,2026-02-02 14:21:12,[109463|0]
706,2026-02-02 14:21:12,[109545|0]
707,2026-02-02 14:21:12,[109641|0]
708,2026-02-02 14:21:12,[109778|0]
709,2026-02-02 14:21:13,[109846|0]
710,2026-02-02 14:21:13,[109891|0]
711,2026-02-02 14:21:13,[109980|0]
712,2026-02-02 14:21:13,[109602|0]
713,2026-02-02 14:21:13,[108967|0]
714,2026-02-02 14:21:13,[108900|0]
715,2026-02-02 14:21:13,[109033|0]
716,2026-02-02 14:21:13,[109175|0]
717,2026-02-02 14:21:13,[109281|0]
718,2026-02-02 14:21:13,[109395|0]
719,2026-02-02 14:21:13,[109366|0]
720,2026-02-02 14:21:13,[109204|0]
721,2026-02-02 14:21:13,[109110|0]
722,2026-02-02 14:21:13,[109256|0]
723,2026-02-02 14:21:13,[109399|0]
724,2026-02-02 14:21:13,[109472|0]
725,2026-02-02 14:21:13,[109620|0]
726,2026-02-02 14:21:13,[109736|0]
727,2026-02-02 14:21:13,[109722|0]
728,2026-02-02 14:21:13,[109684|0]
729,2026-02-02 14:21:13,[109682|0]
730,2026-02-02 14:21:13,[109573|0]
731,2026-02-02 14:21:13,[109083|0]
732,2026-02-02 14:21:13,[108782|0]
733,2026-02-02 14:21:13,[108723|0]
734,2026-02-02 14:21:13,[108846|0]
735,2026-02-02 14:21:14,[109087|0]
736,2026-02-02 14:21:14,[109179|0]
737,2026-02-02 14:21:14,[109140|0]
738,2026-02-02 14:21:14,[109109|0]
739,2026-02-02 14:21:14,[109109|0]
740,2026-02-02 14:21:14,[109016|0]
741,2026-02-02 14:21:14,[108904|0]
742,2026-02-02 14:21:14,[109035|0]
743,2026-02-02 14:21:14,[109148|0]
744,2026-02-02 14:21:14,[109123|0]
745,2026-02-02 14:21:14,[109168|0]
746,2026-02-02 14:21:14,[109324|0]
747,2026-02-02 14:21:14,[109283|0]
748,2026-02-02 14:21:14,[109311|0]
749,2026-02-02 14:21:14,[109452|0]
750,2026-02-02 14:21:14,[109569|0]
751,2026-02-02 14:21:14,[109196|0]
752,2026-02-02 14:21:14,[108798|0]
753,2026-02-02 14:21:14,[108733|0]
754,2026-02-02 14:21:14,[108807|0]
755,2026-02-02 14:21:14,[108887|0]
756,2026-02-02 14:21:14,[109124|0]
757,2026-02-02 14:21:14,[109201|0]
758,2026-02-02 14:21:14,[109126|0]
759,2026-02-02 14:21:15,[109014|0]
760,2026-02-02 14:21:15,[108991|0]
761,2026-02-02 14:21:15,[109089|0]
762,2026-02-02 14:21:15,[109218|0]
763,2026-02-02 14:21:15,[109310|0]
764,2026-02-02 14:21:15,[109443|0]
765,2026-02-02 14:21:15,[109485|0]
766,2026-02-02 14:21:15,[109433|0]
767,2026-02-02 14:21:15,[109436|0]
768,2026-02-02 14:21:15,[109567|0]
769,2026-02-02 14:21:15,[109616|0]
770,2026-02-02 14:21:15,[109598|0]
771,2026-02-02 14:21:15,[109182|0]
772,2026-02-02 14:21:15,[108686|0]
773,2026-02-02 14:21:15,[108563|0]
774,2026-02-02 14:21:15,[108757|0]
775,2026-02-02 14:21:15,[108831|0]
776,2026-02-02 14:21:15,[108868|0]
777,2026-02-02 14:21:15,[108917|0]
778,2026-02-02 14:21:15,[108863|0]
779,2026-02-02 14:21:15,[108788|0]
780,2026-02-02 14:21:15,[108888|0]
781,2026-02-02 14:21:15,[108952|0]
782,2026-02-02 14:21:15,[108992|0]
783,2026-02-02 14:21:15,[109076|0]
784,2026-02-02 14:21:16,[109133|0]
785,2026-02-02 14:21:16,[109113|0]
786,2026-02-02 14:21:16,[109212|0]
787,2026-02-02 14:21:16,[109303|0]
788,2026-02-02 14:21:16,[109303|0]
789,2026-02-02 14:21:16,[109344|0]
790,2026-02-02 14:21:16,[109418|0]
791,2026-02-02 14:21:16,[109336|0]
792,2026-02-02 14:21:16,[108850|0]
793,2026-02-02 14:21:16,[108537|0]
794,2026-02-02 14:21:16,[108593|0]
795,2026-02-02 14:21:16,[108689|0]
796,2026-02-02 14:21:16,[108788|0]
797,2026-02-02 14:21:16,[108832|0]
798,2026-02-02 14:21:16,[108873|0]
799,2026-02-02 14:21:16,[108843|0]
800,2026-02-02 14:21:16,[108756|0]
801,2026-02-02 14:21:16,[108816|0]
802,2026-02-02 14:21:16,[108950|0]
803,2026-02-02 14:21:16,[109022|0]
804,2026-02-02 14:21:16,[109094|0]
805,2026-02-02 14:21:16,[109132|0]
806,2026-02-02 14:21:16,[109244|0]
807,2026-02-02 14:21:16,[109287|0]
808,2026-02-02 14:21:17,[109329|0]
809,2026-02-02 14:21:17,[109384|0]
810,2026-02-02 14:21:17,[109406|0]
811,2026-02-02 14:21:17,[109472|0]
812,2026-02-02 14:21:17,[109552|0]
813,2026-02-02 14:21:17,[109503|0]
814,2026-02-02 14:21:17,[108832|0]
815,2026-02-02 14:21:17,[108490|0]
816,2026-02-02 14:21:17,[108509|0]
817,2026-02-02 14:21:17,[108651|0]
818,2026-02-02 14:21:17,[108775|0]
819,2026-02-02 14:21:17,[108834|0]
820,2026-02-02 14:21:17,[108829|0]
821,2026-02-02 14:21:17,[108778|0]
822,2026-02-02 14:21:17,[108778|0]
823,2026-02-02 14:21:17,[108801|0]
824,2026-02-02 14:21:17,[108908|0]
825,2026-02-02 14:21:17,[108996|0]
826,2026-02-02 14:21:17,[109078|0]
827,2026-02-02 14:21:17,[109129|0]
828,2026-02-02 14:21:17,[109172|0]
829,2026-02-02 14:21:17,[109197|0]
830,2026-02-02 14:21:17,[109291|0]
831,2026-02-02 14:21:17,[109363|0]
832,2026-02-02 14:21:17,[109423|0]
833,2026-02-02 14:21:17,[109482|0]
834,2026-02-02 14:21:18,[109594|0]
835,2026-02-02 14:21:18,[109584|0]
836,2026-02-02 14:21:18,[108962|0]
837,2026-02-02 14:21:18,[108639|0]
838,2026-02-02 14:21:18,[108654|0]
839,2026-02-02 14:21:18,[108797|0]
840,2026-02-02 14:21:18,[108962|0]
841,2026-02-02 14:21:18,[109108|0]
842,2026-02-02 14:21:18,[109168|0]
843,2026-02-02 14:21:18,[109105|0]
844,2026-02-02 14:21:18,[109025|0]
845,2026-02-02 14:21:18,[109101|0]
846,2026-02-02 14:21:18,[109319|0]
847,2026-02-02 14:21:18,[109478|0]
848,2026-02-02 14:21:18,[109598|0]
849,2026-02-02 14:21:18,[109683|0]
850,2026-02-02 14:21:18,[109694|0]
851,2026-02-02 14:21:18,[109789|0]
852,2026-02-02 14:21:18,[109789|0]
853,2026-02-02 14:21:18,[109838|0]
854,2026-02-02 14:21:18,[109881|0]
855,2026-02-02 14:21:18,[109995|0]
856,2026-02-02 14:21:18,[110016|0]
857,2026-02-02 14:21:18,[110048|0]
858,2026-02-02 14:21:18,[110008|0]
859,2026-02-02 14:21:19,[109361|0]
860,2026-02-02 14:21:19,[108851|0]
861,2026-02-02 14:21:19,[108810|0]
862,2026-02-02 14:21:19,[108881|0]
863,2026-02-02 14:21:19,[108870|0]
864,2026-02-02 14:21:19,[109023|0]
865,2026-02-02 14:21:19,[109137|0]
866,2026-02-02 14:21:19,[109045|0]
867,2026-02-02 14:21:19,[108964|0]
868,2026-02-02 14:21:19,[108989|0]
869,2026-02-02 14:21:19,[108996|0]
870,2026-02-02 14:21:19,[109167|0]
871,2026-02-02 14:21:19,[109283|0]
872,2026-02-02 14:21:19,[109271|0]
873,2026-02-02 14:21:19,[109284|0]
874,2026-02-02 14:21:19,[109368|0]
875,2026-02-02 14:21:19,[109378|0]
876,2026-02-02 14:21:19,[109439|0]
877,2026-02-02 14:21:19,[109557|0]
878,2026-02-02 14:21:19,[109653|0]
879,2026-02-02 14:21:19,[109263|0]
880,2026-02-02 14:21:19,[108726|0]
881,2026-02-02 14:21:19,[108559|0]
882,2026-02-02 14:21:19,[108608|0]
883,2026-02-02 14:21:19,[108743|0]
884,2026-02-02 14:21:19,[108842|0]
885,2026-02-02 14:21:20,[108907|0]
886,2026-02-02 14:21:20,[108885|0]
887,2026-02-02 14:21:20,[108855|0]
888,2026-02-02 14:21:20,[108864|0]
889,2026-02-02 14:21:20,[108873|0]
890,2026-02-02 14:21:20,[108944|0]
891,2026-02-02 14:21:20,[109088|0]
892,2026-02-02 14:21:20,[109211|0]
893,2026-02-02 14:21:20,[109279|0]
894,2026-02-02 14:21:20,[109400|0]
895,2026-02-02 14:21:20,[109417|0]
896,2026-02-02 14:21:20,[109483|0]
897,2026-02-02 14:21:20,[109587|0]
898,2026-02-02 14:21:20,[109677|0]
899,2026-02-02 14:21:20,[109628|0]
900,2026-02-02 14:21:20,[109106|0]
901,2026-02-02 14:21:20,[108693|0]
902,2026-02-02 14:21:20,[108648|0]
903,2026-02-02 14:21:20,[108741|0]
904,2026-02-02 14:21:20,[108921|0]
905,2026-02-02 14:21:20,[109142|0]
906,2026-02-02 14:21:20,[109184|0]
907,2026-02-02 14:21:20,[109005|0]
908,2026-02-02 14:21:20,[108950|0]
909,2026-02-02 14:21:21,[108922|0]
910,2026-02-02 14:21:21,[109024|0]
911,2026-02-02 14:21:21,[109215|0]
912,2026-02-02 14:21:21,[109416|0]
913,2026-02-02 14:21:21,[109553|0]
914,2026-02-02 14:21:21,[109663|0]
915,2026-02-02 14:21:21,[109763|0]
916,2026-02-02 14:21:21,[109840|0]
917,2026-02-02 14:21:21,[109844|0]
918,2026-02-02 14:21:21,[109984|0]
919,2026-02-02 14:21:21,[110035|0]
920,2026-02-02 14:21:21,[109545|0]
921,2026-02-02 14:21:21,[108971|0]
922,2026-02-02 14:21:21,[108888|0]
923,2026-02-02 14:21:21,[109039|0]
924,2026-02-02 14:21:21,[109232|0]
925,2026-02-02 14:21:21,[109455|0]
926,2026-02-02 14:21:21,[109617|0]
927,2026-02-02 14:21:21,[109512|0]
928,2026-02-02 14:21:21,[109339|0]
929,2026-02-02 14:21:21,[109330|0]
930,2026-02-02 14:21:21,[109475|0]
931,2026-02-02 14:21:21,[109627|0]
932,2026-02-02 14:21:21,[109720|0]
933,2026-02-02 14:21:21,[109830|0]
934,2026-02-02 14:21:22,[109911|0]
935,2026-02-02 14:21:22,[109913|0]
936,2026-02-02 14:21:22,[109919|0]
937,2026-02-02 14:21:22,[109997|0]
938,2026-02-02 14:21:22,[110021|0]
939,2026-02-02 14:21:22,[109470|0]
940,2026-02-02 14:21:22,[108881|0]
941,2026-02-02 14:21:22,[108833|0]
942,2026-02-02 14:21:22,[108914|0]
943,2026-02-02 14:21:22,[109100|0]
944,2026-02-02 14:21:22,[109330|0]
945,2026-02-02 14:21:22,[109369|0]
946,2026-02-02 14:21:22,[109293|0]
947,2026-02-02 14:21:22,[109248|0]
948,2026-02-02 14:21:22,[109199|0]
949,2026-02-02 14:21:22,[109318|0]
950,2026-02-02 14:21:22,[109474|0]
951,2026-02-02 14:21:22,[109563|0]
952,2026-02-02 14:21:22,[109659|0]
953,2026-02-02 14:21:22,[109783|0]
954,2026-02-02 14:21:22,[109809|0]
955,2026-02-02 14:21:22,[109841|0]
956,2026-02-02 14:21:22,[109888|0]
957,2026-02-02 14:21:22,[109948|0]
958,2026-02-02 14:21:23,[109491|0]
959,2026-02-02 14:21:23,[108826|0]
960,2026-02-02 14:21:23,[108734|0]
961,2026-02-02 14:21:23,[108845|0]
962,2026-02-02 14:21:23,[108989|0]
963,2026-02-02 14:21:23,[109146|0]
964,2026-02-02 14:21:23,[109146|0]
965,2026-02-02 14:21:23,[109210|0]
966,2026-02-02 14:21:23,[109163|0]
967,2026-02-02 14:21:23,[109045|0]
968,2026-02-02 14:21:23,[109052|0]
969,2026-02-02 14:21:23,[109161|0]
970,2026-02-02 14:21:23,[109311|0]
971,2026-02-02 14:21:23,[109446|0]
972,2026-02-02 14:21:23,[109558|0]
973,2026-02-02 14:21:23,[109617|0]
974,2026-02-02 14:21:23,[109641|0]
975,2026-02-02 14:21:23,[109701|0]
976,2026-02-02 14:21:23,[109738|0]
977,2026-02-02 14:21:23,[109767|0]
978,2026-02-02 14:21:23,[109374|0]
979,2026-02-02 14:21:23,[108775|0]
980,2026-02-02 14:21:23,[108689|0]
981,2026-02-02 14:21:23,[108758|0]
982,2026-02-02 14:21:23,[108872|0]
983,2026-02-02 14:21:23,[109067|0]
984,2026-02-02 14:21:24,[109184|0]
985,2026-02-02 14:21:24,[109034|0]
986,2026-02-02 14:21:24,[108979|0]
987,2026-02-02 14:21:24,[108967|0]
988,2026-02-02 14:21:24,[109037|0]
989,2026-02-02 14:21:24,[109156|0]
990,2026-02-02 14:21:24,[109234|0]
991,2026-02-02 14:21:24,[109327|0]
992,2026-02-02 14:21:24,[109385|0]
993,2026-02-02 14:21:24,[109345|0]
994,2026-02-02 14:21:24,[109427|0]
995,2026-02-02 14:21:24,[109460|0]
996,2026-02-02 14:21:24,[109524|0]
997,2026-02-02 14:21:24,[109496|0]
998,2026-02-02 14:21:24,[108906|0]
999,2026-02-02 14:21:24,[108583|0]
1000,2026-02-02 14:21:24,[108619|0]
1001,2026-02-02 14:21:24,[108717|0]
1002,2026-02-02 14:21:24,[108842|0]
1003,2026-02-02 14:21:24,[108983|0]
1004,2026-02-02 14:21:24,[108978|0]
1005,2026-02-02 14:21:24,[108866|0]
1006,2026-02-02 14:21:24,[108824|0]
1007,2026-02-02 14:21:24,[108837|0]
1008,2026-02-02 14:21:24,[108949|0]
1009,2026-02-02 14:21:25,[109047|0]
1010,2026-02-02 14:21:25,[109150|0]
1011,2026-02-02 14:21:25,[109271|0]
1012,2026-02-02 14:21:25,[109353|0]
1013,2026-02-02 14:21:25,[109355|0]
1014,2026-02-02 14:21:25,[109415|0]
1015,2026-02-02 14:21:25,[109516|0]
1016,2026-02-02 14:21:25,[109576|0]
1017,2026-02-02 14:21:25,[109561|0]
1018,2026-02-02 14:21:25,[108997|0]
1019,2026-02-02 14:21:25,[108569|0]
1020,2026-02-02 14:21:25,[108572|0]
1021,2026-02-02 14:21:25,[108712|0]
1022,2026-02-02 14:21:25,[108814|0]
1023,2026-02-02 14:21:25,[108967|0]
1024,2026-02-02 14:21:25,[109016|0]
1025,2026-02-02 14:21:25,[108845|0]
1026,2026-02-02 14:21:25,[108824|0]
1027,2026-02-02 14:21:25,[108920|0]
1028,2026-02-02 14:21:25,[109044|0]
1029,2026-02-02 14:21:25,[109093|0]
1030,2026-02-02 14:21:25,[109253|0]
1031,2026-02-02 14:21:25,[109354|0]
1032,2026-02-02 14:21:25,[109365|0]
1033,2026-02-02 14:21:26,[109396|0]
1034,2026-02-02 14:21:26,[109456|0]
1035,2026-02-02 14:21:26,[109484|0]
1036,2026-02-02 14:21:26,[109508|0]
1037,2026-02-02 14:21:26,[109520|0]
1038,2026-02-02 14:21:26,[109095|0]
1039,2026-02-02 14:21:26,[108614|0]
1040,2026-02-02 14:21:26,[108547|0]
1041,2026-02-02 14:21:26,[108633|0]
1042,2026-02-02 14:21:26,[108697|0]
1043,2026-02-02 14:21:26,[108822|0]
1044,2026-02-02 14:21:26,[108961|0]
1045,2026-02-02 14:21:26,[108837|0]
1046,2026-02-02 14:21:26,[108782|0]
1047,2026-02-02 14:21:26,[108819|0]
1048,2026-02-02 14:21:26,[108812|0]
1049,2026-02-02 14:21:26,[108846|0]
1050,2026-02-02 14:21:26,[109002|0]
1051,2026-02-02 14:21:26,[109082|0]
1052,2026-02-02 14:21:26,[109150|0]
1053,2026-02-02 14:21:26,[109269|0]
1054,2026-02-02 14:21:26,[109287|0]
1055,2026-02-02 14:21:26,[109310|0]
1056,2026-02-02 14:21:26,[109448|0]
1057,2026-02-02 14:21:26,[109538|0]
1058,2026-02-02 14:21:26,[109142|0]
1059,2026-02-02 14:21:27,[108639|0]
1060,2026-02-02 14:21:27,[108549|0]
1061,2026-02-02 14:21:27,[108596|0]
1062,2026-02-02 14:21:27,[108773|0]
1063,2026-02-02 14:21:27,[108930|0]
1064,2026-02-02 14:21:27,[108990|0]
1065,2026-02-02 14:21:27,[108946|0]
1066,2026-02-02 14:21:27,[108831|0]
1067,2026-02-02 14:21:27,[108828|0]
1068,2026-02-02 14:21:27,[108916|0]
1069,2026-02-02 14:21:27,[108993|0]
1070,2026-02-02 14:21:27,[109125|0]
1071,2026-02-02 14:21:27,[109231|0]
1072,2026-02-02 14:21:27,[109219|0]
1073,2026-02-02 14:21:27,[109329|0]
1074,2026-02-02 14:21:27,[109409|0]
1075,2026-02-02 14:21:27,[109416|0]
1076,2026-02-02 14:21:27,[109479|0]
1077,2026-02-02 14:21:27,[109578|0]
1078,2026-02-02 14:21:27,[109578|0]
1079,2026-02-02 14:21:27,[109351|0]
1080,2026-02-02 14:21:27,[108703|0]
1081,2026-02-02 14:21:27,[108526|0]
1082,2026-02-02 14:21:27,[108588|0]
1083,2026-02-02 14:21:27,[108655|0]
1084,2026-02-02 14:21:28,[108779|0]
1085,2026-02-02 14:21:28,[108870|0]
1086,2026-02-02 14:21:28,[108849|0]
1087,2026-02-02 14:21:28,[108757|0]
1088,2026-02-02 14:21:28,[108755|0]
1089,2026-02-02 14:21:28,[108846|0]
1090,2026-02-02 14:21:28,[108884|0]
1091,2026-02-02 14:21:28,[108945|0]
1092,2026-02-02 14:21:28,[109110|0]
1093,2026-02-02 14:21:28,[109131|0]
1094,2026-02-02 14:21:28,[109177|0]
1095,2026-02-02 14:21:28,[109226|0]
1096,2026-02-02 14:21:28,[109191|0]
1097,2026-02-02 14:21:28,[109203|0]
1098,2026-02-02 14:21:28,[109351|0]
1099,2026-02-02 14:21:28,[109420|0]
1100,2026-02-02 14:21:28,[109013|0]
1101,2026-02-02 14:21:28,[108538|0]
1102,2026-02-02 14:21:28,[108417|0]
1103,2026-02-02 14:21:28,[108417|0]
1104,2026-02-02 14:21:28,[108554|0]
1105,2026-02-02 14:21:28,[108571|0]
1106,2026-02-02 14:21:28,[108497|0]
1107,2026-02-02 14:21:28,[108496|0]
1108,2026-02-02 14:21:29,[108481|0]
1109,2026-02-02 14:21:29,[108453|0]
1110,2026-02-02 14:21:29,[108622|0]
1111,2026-02-02 14:21:29,[108683|0]
1112,2026-02-02 14:21:29,[108691|0]
1113,2026-02-02 14:21:29,[108773|0]
1114,2026-02-02 14:21:29,[108841|0]
1115,2026-02-02 14:21:29,[108831|0]
1116,2026-02-02 14:21:29,[108942|0]
1117,2026-02-02 14:21:29,[109007|0]
1118,2026-02-02 14:21:29,[109013|0]
1119,2026-02-02 14:21:29,[109149|0]
1120,2026-02-02 14:21:29,[109233|0]
1121,2026-02-02 14:21:29,[108727|0]
1122,2026-02-02 14:21:29,[108397|0]
1123,2026-02-02 14:21:29,[108342|0]
1124,2026-02-02 14:21:29,[108378|0]
1125,2026-02-02 14:21:29,[108399|0]
1126,2026-02-02 14:21:29,[108486|0]
1127,2026-02-02 14:21:29,[108489|0]
1128,2026-02-02 14:21:29,[108461|0]
1129,2026-02-02 14:21:29,[108467|0]
1130,2026-02-02 14:21:29,[108538|0]
1131,2026-02-02 14:21:29,[108605|0]
1132,2026-02-02 14:21:29,[108694|0]
1133,2026-02-02 14:21:29,[108764|0]
1134,2026-02-02 14:21:30,[108851|0]
1135,2026-02-02 14:21:30,[108874|0]
1136,2026-02-02 14:21:30,[108915|0]
1137,2026-02-02 14:21:30,[108977|0]
1138,2026-02-02 14:21:30,[109040|0]
1139,2026-02-02 14:21:30,[109054|0]
1140,2026-02-02 14:21:30,[109150|0]
1141,2026-02-02 14:21:30,[109007|0]
1142,2026-02-02 14:21:30,[108471|0]
1143,2026-02-02 14:21:30,[108265|0]
1144,2026-02-02 14:21:30,[108269|0]
1145,2026-02-02 14:21:30,[108337|0]
1146,2026-02-02 14:21:30,[108446|0]
1147,2026-02-02 14:21:30,[108536|0]
1148,2026-02-02 14:21:30,[108505|0]
1149,2026-02-02 14:21:30,[108457|0]
1150,2026-02-02 14:21:30,[108438|0]
1151,2026-02-02 14:21:30,[108460|0]
1152,2026-02-02 14:21:30,[108606|0]
1153,2026-02-02 14:21:30,[108704|0]
1154,2026-02-02 14:21:30,[108757|0]
1155,2026-02-02 14:21:30,[108856|0]
1156,2026-02-02 14:21:30,[108882|0]
1157,2026-02-02 14:21:30,[108907|0]
1158,2026-02-02 14:21:30,[108997|0]
1159,2026-02-02 14:21:31,[108991|0]
1160,2026-02-02 14:21:31,[108953|0]
1161,2026-02-02 14:21:31,[109054|0]
1162,2026-02-02 14:21:31,[108616|0]
1163,2026-02-02 14:21:31,[108223|0]
1164,2026-02-02 14:21:31,[108188|0]
1165,2026-02-02 14:21:31,[108244|0]
1166,2026-02-02 14:21:31,[108329|0]
1167,2026-02-02 14:21:31,[108390|0]
1168,2026-02-02 14:21:31,[108468|0]
1169,2026-02-02 14:21:31,[108434|0]
1170,2026-02-02 14:21:31,[108374|0]
1171,2026-02-02 14:21:31,[108420|0]
1172,2026-02-02 14:21:31,[108518|0]
1173,2026-02-02 14:21:31,[108537|0]
1174,2026-02-02 14:21:31,[108549|0]
1175,2026-02-02 14:21:31,[108612|0]
1176,2026-02-02 14:21:31,[108654|0]
1177,2026-02-02 14:21:31,[108678|0]
1178,2026-02-02 14:21:31,[108685|0]
1179,2026-02-02 14:21:31,[108720|0]
1180,2026-02-02 14:21:31,[108780|0]
1181,2026-02-02 14:21:31,[108858|0]
1182,2026-02-02 14:21:31,[108861|0]
1183,2026-02-02 14:21:32,[108391|0]
1184,2026-02-02 14:21:32,[108125|0]
1185,2026-02-02 14:21:32,[108090|0]
1186,2026-02-02 14:21:32,[108150|0]
1187,2026-02-02 14:21:32,[108233|0]
1188,2026-02-02 14:21:32,[108286|0]
1189,2026-02-02 14:21:32,[108303|0]
1190,2026-02-02 14:21:32,[108264|0]
1191,2026-02-02 14:21:32,[108242|0]
1192,2026-02-02 14:21:32,[108242|0]
1193,2026-02-02 14:21:32,[108232|0]
1194,2026-02-02 14:21:32,[108305|0]
1195,2026-02-02 14:21:32,[108374|0]
1196,2026-02-02 14:21:32,[108452|0]
1197,2026-02-02 14:21:32,[108481|0]
1198,2026-02-02 14:21:32,[108520|0]
1199,2026-02-02 14:21:32,[108554|0]
1200,2026-02-02 14:21:32,[108590|0]
1201,2026-02-02 14:21:32,[108669|0]
1202,2026-02-02 14:21:32,[108775|0]
1203,2026-02-02 14:21:32,[108801|0]
1204,2026-02-02 14:21:32,[108606|0]
1205,2026-02-02 14:21:32,[108177|0]
1206,2026-02-02 14:21:32,[108007|0]
1207,2026-02-02 14:21:32,[108021|0]
1208,2026-02-02 14:21:32,[108146|0]
1209,2026-02-02 14:21:33,[108252|0]
1210,2026-02-02 14:21:33,[108328|0]
1211,2026-02-02 14:21:33,[108284|0]
1212,2026-02-02 14:21:33,[108244|0]
1213,2026-02-02 14:21:33,[108138|0]
1214,2026-02-02 14:21:33,[108152|0]
1215,2026-02-02 14:21:33,[108281|0]
1216,2026-02-02 14:21:33,[108340|0]
1217,2026-02-02 14:21:33,[108370|0]
1218,2026-02-02 14:21:33,[108489|0]
1219,2026-02-02 14:21:33,[108542|0]
1220,2026-02-02 14:21:33,[108495|0]
1221,2026-02-02 14:21:33,[108539|0]
1222,2026-02-02 14:21:33,[108632|0]
1223,2026-02-02 14:21:33,[108594|0]
1224,2026-02-02 14:21:33,[108688|0]
1225,2026-02-02 14:21:33,[108591|0]
1226,2026-02-02 14:21:33,[108104|0]
1227,2026-02-02 14:21:33,[107854|0]
1228,2026-02-02 14:21:33,[107847|0]
1229,2026-02-02 14:21:33,[107875|0]
1230,2026-02-02 14:21:33,[107886|0]
1231,2026-02-02 14:21:33,[107893|0]
1232,2026-02-02 14:21:33,[107950|0]
1233,2026-02-02 14:21:33,[107912|0]
1234,2026-02-02 14:21:34,[107869|0]
1235,2026-02-02 14:21:34,[107935|0]
1236,2026-02-02 14:21:34,[108045|0]
1237,2026-02-02 14:21:34,[108101|0]
1238,2026-02-02 14:21:34,[108149|0]
1239,2026-02-02 14:21:34,[108234|0]
1240,2026-02-02 14:21:34,[108309|0]
1241,2026-02-02 14:21:34,[108253|0]
1242,2026-02-02 14:21:34,[108359|0]
1243,2026-02-02 14:21:34,[108463|0]
1244,2026-02-02 14:21:34,[108462|0]
1245,2026-02-02 14:21:34,[108613|0]
1246,2026-02-02 14:21:34,[108738|0]
1247,2026-02-02 14:21:34,[108267|0]
1248,2026-02-02 14:21:34,[107920|0]
1249,2026-02-02 14:21:34,[107838|0]
1250,2026-02-02 14:21:34,[107877|0]
1251,2026-02-02 14:21:34,[107969|0]
1252,2026-02-02 14:21:34,[108079|0]
1253,2026-02-02 14:21:34,[108173|0]
1254,2026-02-02 14:21:34,[108143|0]
1255,2026-02-02 14:21:34,[108051|0]
1256,2026-02-02 14:21:34,[108116|0]
1257,2026-02-02 14:21:34,[108219|0]
1258,2026-02-02 14:21:35,[108275|0]
1259,2026-02-02 14:21:35,[108355|0]
1260,2026-02-02 14:21:35,[108540|0]
1261,2026-02-02 14:21:35,[108639|0]
1262,2026-02-02 14:21:35,[108642|0]
1263,2026-02-02 14:21:35,[108670|0]
1264,2026-02-02 14:21:35,[108770|0]
1265,2026-02-02 14:21:35,[108822|0]
1266,2026-02-02 14:21:35,[108927|0]
1267,2026-02-02 14:21:35,[108942|0]
1268,2026-02-02 14:21:35,[108360|0]
1269,2026-02-02 14:21:35,[108014|0]
1270,2026-02-02 14:21:35,[107985|0]
1271,2026-02-02 14:21:35,[108075|0]
1272,2026-02-02 14:21:35,[108241|0]
1273,2026-02-02 14:21:35,[108376|0]
1274,2026-02-02 14:21:35,[108359|0]
1275,2026-02-02 14:21:35,[108322|0]
1276,2026-02-02 14:21:35,[108250|0]
1277,2026-02-02 14:21:35,[108210|0]
1278,2026-02-02 14:21:35,[108294|0]
1279,2026-02-02 14:21:35,[108461|0]
1280,2026-02-02 14:21:35,[108528|0]
1281,2026-02-02 14:21:35,[108528|0]
1282,2026-02-02 14:21:35,[108685|0]
1283,2026-02-02 14:21:35,[108723|0]
1284,2026-02-02 14:21:36,[108688|0]
1285,2026-02-02 14:21:36,[108798|0]
1286,2026-02-02 14:21:36,[108892|0]
1287,2026-02-02 14:21:36,[108887|0]
1288,2026-02-02 14:21:36,[108832|0]
1289,2026-02-02 14:21:36,[108284|0]
1290,2026-02-02 14:21:36,[107997|0]
1291,2026-02-02 14:21:36,[107929|0]
1292,2026-02-02 14:21:36,[108059|0]
1293,2026-02-02 14:21:36,[108226|0]
1294,2026-02-02 14:21:36,[108276|0]
1295,2026-02-02 14:21:36,[108326|0]
1296,2026-02-02 14:21:36,[108312|0]
1297,2026-02-02 14:21:36,[108265|0]
1298,2026-02-02 14:21:36,[108291|0]
1299,2026-02-02 14:21:36,[108424|0]
1300,2026-02-02 14:21:36,[108602|0]
1301,2026-02-02 14:21:36,[108723|0]
1302,2026-02-02 14:21:36,[108830|0]
1303,2026-02-02 14:21:36,[108985|0]
1304,2026-02-02 14:21:36,[109028|0]
1305,2026-02-02 14:21:36,[109088|0]
1306,2026-02-02 14:21:36,[109088|0]
1307,2026-02-02 14:21:36,[109133|0]
1308,2026-02-02 14:21:36,[109189|0]
1309,2026-02-02 14:21:37,[109294|0]
1310,2026-02-02 14:21:37,[109361|0]
1311,2026-02-02 14:21:37,[108749|0]
1312,2026-02-02 14:21:37,[108231|0]
1313,2026-02-02 14:21:37,[108175|0]
1314,2026-02-02 14:21:37,[108313|0]
1315,2026-02-02 14:21:37,[108454|0]
1316,2026-02-02 14:21:37,[108598|0]
1317,2026-02-02 14:21:37,[108682|0]
1318,2026-02-02 14:21:37,[108660|0]
1319,2026-02-02 14:21:37,[108504|0]
1320,2026-02-02 14:21:37,[108533|0]
1321,2026-02-02 14:21:37,[108686|0]
1322,2026-02-02 14:21:37,[108799|0]
1323,2026-02-02 14:21:37,[108924|0]
1324,2026-02-02 14:21:37,[109065|0]
1325,2026-02-02 14:21:37,[109112|0]
1326,2026-02-02 14:21:37,[109229|0]
1327,2026-02-02 14:21:37,[109288|0]
1328,2026-02-02 14:21:37,[109368|0]
1329,2026-02-02 14:21:37,[109466|0]
1330,2026-02-02 14:21:37,[109482|0]
1331,2026-02-02 14:21:37,[109061|0]
1332,2026-02-02 14:21:37,[108439|0]
1333,2026-02-02 14:21:37,[108298|0]
1334,2026-02-02 14:21:37,[108382|0]
1335,2026-02-02 14:21:38,[108603|0]
1336,2026-02-02 14:21:38,[108801|0]
1337,2026-02-02 14:21:38,[108872|0]
1338,2026-02-02 14:21:38,[108825|0]
1339,2026-02-02 14:21:38,[108815|0]
1340,2026-02-02 14:21:38,[108801|0]
1341,2026-02-02 14:21:38,[108903|0]
1342,2026-02-02 14:21:38,[109091|0]
1343,2026-02-02 14:21:38,[109236|0]
1344,2026-02-02 14:21:38,[109429|0]
1345,2026-02-02 14:21:38,[109518|0]
1346,2026-02-02 14:21:38,[109615|0]
1347,2026-02-02 14:21:38,[109684|0]
1348,2026-02-02 14:21:38,[109698|0]
1349,2026-02-02 14:21:38,[109724|0]
1350,2026-02-02 14:21:38,[109756|0]
1351,2026-02-02 14:21:38,[109141|0]
1352,2026-02-02 14:21:38,[108517|0]
1353,2026-02-02 14:21:38,[108430|0]
1354,2026-02-02 14:21:38,[108549|0]
1355,2026-02-02 14:21:38,[108674|0]
1356,2026-02-02 14:21:38,[108905|0]
1357,2026-02-02 14:21:38,[109055|0]
1358,2026-02-02 14:21:38,[108913|0]
1359,2026-02-02 14:21:39,[108824|0]
1360,2026-02-02 14:21:39,[108858|0]
1361,2026-02-02 14:21:39,[108907|0]
1362,2026-02-02 14:21:39,[109069|0]
1363,2026-02-02 14:21:39,[109248|0]
1364,2026-02-02 14:21:39,[109340|0]
1365,2026-02-02 14:21:39,[109363|0]
1366,2026-02-02 14:21:39,[109435|0]
1367,2026-02-02 14:21:39,[109423|0]
1368,2026-02-02 14:21:39,[109488|0]
1369,2026-02-02 14:21:39,[109595|0]
1370,2026-02-02 14:21:39,[109367|0]
1371,2026-02-02 14:21:39,[108607|0]
1372,2026-02-02 14:21:39,[108386|0]
1373,2026-02-02 14:21:39,[108356|0]
1374,2026-02-02 14:21:39,[108562|0]
1375,2026-02-02 14:21:39,[108805|0]
1376,2026-02-02 14:21:39,[108922|0]
1377,2026-02-02 14:21:39,[108935|0]
1378,2026-02-02 14:21:39,[108839|0]
1379,2026-02-02 14:21:39,[108707|0]
1380,2026-02-02 14:21:39,[108798|0]
1381,2026-02-02 14:21:39,[108940|0]
1382,2026-02-02 14:21:39,[109058|0]
1383,2026-02-02 14:21:39,[109186|0]
1384,2026-02-02 14:21:40,[109269|0]
1385,2026-02-02 14:21:40,[109285|0]
1386,2026-02-02 14:21:40,[109344|0]
1387,2026-02-02 14:21:40,[109414|0]
1388,2026-02-02 14:21:40,[109475|0]
1389,2026-02-02 14:21:40,[109158|0]
1390,2026-02-02 14:21:40,[108534|0]
1391,2026-02-02 14:21:40,[108385|0]
1392,2026-02-02 14:21:40,[108502|0]
1393,2026-02-02 14:21:40,[108650|0]
1394,2026-02-02 14:21:40,[108834|0]
1395,2026-02-02 14:21:40,[109002|0]
1396,2026-02-02 14:21:40,[108894|0]
1397,2026-02-02 14:21:40,[108717|0]
1398,2026-02-02 14:21:40,[108780|0]
1399,2026-02-02 14:21:40,[108868|0]
1400,2026-02-02 14:21:40,[108995|0]
1401,2026-02-02 14:21:40,[109153|0]
1402,2026-02-02 14:21:40,[109253|0]
1403,2026-02-02 14:21:40,[109317|0]
1404,2026-02-02 14:21:40,[109367|0]
1405,2026-02-02 14:21:40,[109383|0]
1406,2026-02-02 14:21:40,[109423|0]
1407,2026-02-02 14:21:40,[109401|0]
1408,2026-02-02 14:21:41,[108730|0]
1409,2026-02-02 14:21:41,[108355|0]
1410,2026-02-02 14:21:41,[108367|0]
1411,2026-02-02 14:21:41,[108455|0]
1412,2026-02-02 14:21:41,[108582|0]
1413,2026-02-02 14:21:41,[108726|0]
1414,2026-02-02 14:21:41,[108724|0]
1415,2026-02-02 14:21:41,[108662|0]
1416,2026-02-02 14:21:41,[108595|0]
1417,2026-02-02 14:21:41,[108658|0]
1418,2026-02-02 14:21:41,[108750|0]
1419,2026-02-02 14:21:41,[108899|0]
1420,2026-02-02 14:21:41,[108998|0]
1421,2026-02-02 14:21:41,[109093|0]
1422,2026-02-02 14:21:41,[109093|0]
1423,2026-02-02 14:21:41,[109136|0]
1424,2026-02-02 14:21:41,[109194|0]
1425,2026-02-02 14:21:41,[109295|0]
1426,2026-02-02 14:21:41,[109333|0]
1427,2026-02-02 14:21:41,[109098|0]
1428,2026-02-02 14:21:41,[108480|0]
1429,2026-02-02 14:21:41,[108246|0]
1430,2026-02-02 14:21:41,[108270|0]
1431,2026-02-02 14:21:41,[108392|0]
1432,2026-02-02 14:21:41,[108518|0]
1433,2026-02-02 14:21:41,[108575|0]
1434,2026-02-02 14:21:42,[108537|0]
1435,2026-02-02 14:21:42,[108487|0]
1436,2026-02-02 14:21:42,[108489|0]
1437,2026-02-02 14:21:42,[108494|0]
1438,2026-02-02 14:21:42,[108609|0]
1439,2026-02-02 14:21:42,[108745|0]
1440,2026-02-02 14:21:42,[108947|0]
1441,2026-02-02 14:21:42,[109077|0]
1442,2026-02-02 14:21:42,[109133|0]
1443,2026-02-02 14:21:42,[109238|0]
1444,2026-02-02 14:21:42,[109343|0]
1445,2026-02-02 14:21:42,[109391|0]
1446,2026-02-02 14:21:42,[109331|0]
1447,2026-02-02 14:21:42,[108685|0]
1448,2026-02-02 14:21:42,[108335|0]
1449,2026-02-02 14:21:42,[108302|0]
1450,2026-02-02 14:21:42,[108411|0]
1451,2026-02-02 14:21:42,[108545|0]
1452,2026-02-02 14:21:42,[108663|0]
1453,2026-02-02 14:21:42,[108632|0]
1454,2026-02-02 14:21:42,[108567|0]
1455,2026-02-02 14:21:42,[108524|0]
1456,2026-02-02 14:21:42,[108713|0]
1457,2026-02-02 14:21:42,[108930|0]
1458,2026-02-02 14:21:42,[109095|0]
1459,2026-02-02 14:21:43,[109194|0]
1460,2026-02-02 14:21:43,[109293|0]
1461,2026-02-02 14:21:43,[109352|0]
1462,2026-02-02 14:21:43,[109349|0]
1463,2026-02-02 14:21:43,[109391|0]
1464,2026-02-02 14:21:43,[109466|0]
1465,2026-02-02 14:21:43,[109469|0]
1466,2026-02-02 14:21:43,[109168|0]
1467,2026-02-02 14:21:43,[108500|0]
1468,2026-02-02 14:21:43,[108268|0]
1469,2026-02-02 14:21:43,[108274|0]
1470,2026-02-02 14:21:43,[108424|0]
1471,2026-02-02 14:21:43,[108491|0]
1472,2026-02-02 14:21:43,[108566|0]
1473,2026-02-02 14:21:43,[108546|0]
1474,2026-02-02 14:21:43,[108530|0]
1475,2026-02-02 14:21:43,[108507|0]
1476,2026-02-02 14:21:43,[108635|0]
1477,2026-02-02 14:21:43,[108746|0]
1478,2026-02-02 14:21:43,[108821|0]
1479,2026-02-02 14:21:43,[108939|0]
1480,2026-02-02 14:21:43,[109005|0]
1481,2026-02-02 14:21:43,[108939|0]
1482,2026-02-02 14:21:43,[108994|0]
1483,2026-02-02 14:21:44,[108996|0]
1484,2026-02-02 14:21:44,[109037|0]
1485,2026-02-02 14:21:44,[109133|0]
1486,2026-02-02 14:21:44,[109180|0]
1487,2026-02-02 14:21:44,[108678|0]
1488,2026-02-02 14:21:44,[108222|0]
1489,2026-02-02 14:21:44,[108147|0]
1490,2026-02-02 14:21:44,[108150|0]
1491,2026-02-02 14:21:44,[108282|0]
1492,2026-02-02 14:21:44,[108349|0]
1493,2026-02-02 14:21:44,[108363|0]
1494,2026-02-02 14:21:44,[108398|0]
1495,2026-02-02 14:21:44,[108332|0]
1496,2026-02-02 14:21:44,[108302|0]
1497,2026-02-02 14:21:44,[108359|0]
1498,2026-02-02 14:21:44,[108487|0]
1499,2026-02-02 14:21:44,[108486|0]
1500,2026-02-02 14:21:44,[108572|0]
1501,2026-02-02 14:21:44,[108632|0]
1502,2026-02-02 14:21:44,[108583|0]
1503,2026-02-02 14:21:44,[108587|0]
1504,2026-02-02 14:21:44,[108627|0]
1505,2026-02-02 14:21:44,[108625|0]
1506,2026-02-02 14:21:44,[108724|0]
1507,2026-02-02 14:21:44,[108854|0]
1508,2026-02-02 14:21:44,[108595|0]
1509,2026-02-02 14:21:45,[108168|0]
1510,2026-02-02 14:21:45,[108021|0]
1511,2026-02-02 14:21:45,[108030|0]
1512,2026-02-02 14:21:45,[108144|0]
1513,2026-02-02 14:21:45,[108253|0]
1514,2026-02-02 14:21:45,[108331|0]
1515,2026-02-02 14:21:45,[108323|0]
1516,2026-02-02 14:21:45,[108263|0]
1517,2026-02-02 14:21:45,[108236|0]
1518,2026-02-02 14:21:45,[108304|0]
1519,2026-02-02 14:21:45,[108407|0]
1520,2026-02-02 14:21:45,[108509|0]
1521,2026-02-02 14:21:45,[108612|0]
1522,2026-02-02 14:21:45,[108667|0]
1523,2026-02-02 14:21:45,[108643|0]
1524,2026-02-02 14:21:45,[108685|0]
1525,2026-02-02 14:21:45,[108744|0]
1526,2026-02-02 14:21:45,[108758|0]
1527,2026-02-02 14:21:45,[108873|0]
1528,2026-02-02 14:21:45,[108938|0]
1529,2026-02-02 14:21:45,[109025|0]
1530,2026-02-02 14:21:45,[108740|0]
1531,2026-02-02 14:21:45,[108144|0]
1532,2026-02-02 14:21:45,[108006|0]
1533,2026-02-02 14:21:45,[108037|0]
1534,2026-02-02 14:21:46,[108081|0]
1535,2026-02-02 14:21:46,[108148|0]
1536,2026-02-02 14:21:46,[108148|0]
1537,2026-02-02 14:21:46,[108241|0]
1538,2026-02-02 14:21:46,[108260|0]
1539,2026-02-02 14:21:46,[108202|0]
1540,2026-02-02 14:21:46,[108205|0]
1541,2026-02-02 14:21:46,[108269|0]
1542,2026-02-02 14:21:46,[108411|0]
1543,2026-02-02 14:21:46,[108559|0]
1544,2026-02-02 14:21:46,[108744|0]
1545,2026-02-02 14:21:46,[108895|0]
1546,2026-02-02 14:21:46,[109007|0]
1547,2026-02-02 14:21:46,[109048|0]
1548,2026-02-02 14:21:46,[109112|0]
1549,2026-02-02 14:21:46,[109224|0]
1550,2026-02-02 14:21:46,[109230|0]
1551,2026-02-02 14:21:46,[109237|0]
1552,2026-02-02 14:21:46,[109340|0]
1553,2026-02-02 14:21:46,[109226|0]
1554,2026-02-02 14:21:46,[108541|0]
1555,2026-02-02 14:21:46,[108174|0]
1556,2026-02-02 14:21:46,[108161|0]
1557,2026-02-02 14:21:46,[108260|0]
1558,2026-02-02 14:21:47,[108355|0]
1559,2026-02-02 14:21:47,[108476|0]
1560,2026-02-02 14:21:47,[108535|0]
1561,2026-02-02 14:21:47,[108473|0]
1562,2026-02-02 14:21:47,[108473|0]
1563,2026-02-02 14:21:47,[108533|0]
1564,2026-02-02 14:21:47,[108629|0]
1565,2026-02-02 14:21:47,[108764|0]
1566,2026-02-02 14:21:47,[108937|0]
1567,2026-02-02 14:21:47,[109016|0]
1568,2026-02-02 14:21:47,[109063|0]
1569,2026-02-02 14:21:47,[109162|0]
1570,2026-02-02 14:21:47,[109226|0]
1571,2026-02-02 14:21:47,[109230|0]
1572,2026-02-02 14:21:47,[109296|0]
1573,2026-02-02 14:21:47,[109389|0]
1574,2026-02-02 14:21:47,[109522|0]
1575,2026-02-02 14:21:47,[109346|0]
1576,2026-02-02 14:21:47,[108555|0]
1577,2026-02-02 14:21:47,[108285|0]
1578,2026-02-02 14:21:47,[108338|0]
1579,2026-02-02 14:21:47,[108496|0]
1580,2026-02-02 14:21:47,[108609|0]
1581,2026-02-02 14:21:47,[108773|0]
1582,2026-02-02 14:21:47,[108840|0]
1583,2026-02-02 14:21:47,[108733|0]
1584,2026-02-02 14:21:48,[108691|0]
1585,2026-02-02 14:21:48,[108777|0]
1586,2026-02-02 14:21:48,[108965|0]
1587,2026-02-02 14:21:48,[109133|0]
1588,2026-02-02 14:21:48,[109280|0]
1589,2026-02-02 14:21:48,[109352|0]
1590,2026-02-02 14:21:48,[109455|0]
1591,2026-02-02 14:21:48,[109496|0]
1592,2026-02-02 14:21:48,[109533|0]
1593,2026-02-02 14:21:48,[109609|0]
1594,2026-02-02 14:21:48,[109692|0]
1595,2026-02-02 14:21:48,[109700|0]
1596,2026-02-02 14:21:48,[109740|0]
1597,2026-02-02 14:21:48,[109303|0]
1598,2026-02-02 14:21:48,[108577|0]
1599,2026-02-02 14:21:48,[108438|0]
1600,2026-02-02 14:21:48,[108539|0]
1601,2026-02-02 14:21:48,[108632|0]
1602,2026-02-02 14:21:48,[108759|0]
1603,2026-02-02 14:21:48,[108865|0]
1604,2026-02-02 14:21:48,[108819|0]
1605,2026-02-02 14:21:48,[108762|0]
1606,2026-02-02 14:21:48,[108711|0]
1607,2026-02-02 14:21:48,[108779|0]
1608,2026-02-02 14:21:48,[108937|0]
1609,2026-02-02 14:21:49,[109067|0]
1610,2026-02-02 14:21:49,[109134|0]
1611,2026-02-02 14:21:49,[109175|0]
1612,2026-02-02 14:21:49,[109206|0]
1613,2026-02-02 14:21:49,[109245|0]
1614,2026-02-02 14:21:49,[109298|0]
1615,2026-02-02 14:21:49,[109374|0]
1616,2026-02-02 14:21:49,[109496|0]
1617,2026-02-02 14:21:49,[109402|0]
1618,2026-02-02 14:21:49,[108742|0]
1619,2026-02-02 14:21:49,[108435|0]
1620,2026-02-02 14:21:49,[108453|0]
1621,2026-02-02 14:21:49,[108556|0]
1622,2026-02-02 14:21:49,[108695|0]
1623,2026-02-02 14:21:49,[108788|0]
1624,2026-02-02 14:21:49,[108726|0]
1625,2026-02-02 14:21:49,[108667|0]
1626,2026-02-02 14:21:49,[108653|0]
1627,2026-02-02 14:21:49,[108670|0]
1628,2026-02-02 14:21:49,[108828|0]
1629,2026-02-02 14:21:49,[109026|0]
1630,2026-02-02 14:21:49,[109131|0]
1631,2026-02-02 14:21:49,[109179|0]
1632,2026-02-02 14:21:49,[109255|0]
1633,2026-02-02 14:21:50,[109308|0]
1634,2026-02-02 14:21:50,[109353|0]
1635,2026-02-02 14:21:50,[109194|0]
1636,2026-02-02 14:21:50,[108568|0]
1637,2026-02-02 14:21:50,[108343|0]
1638,2026-02-02 14:21:50,[108352|0]
1639,2026-02-02 14:21:50,[108444|0]
1640,2026-02-02 14:21:50,[108559|0]
1641,2026-02-02 14:21:50,[108674|0]
1642,2026-02-02 14:21:50,[108669|0]
1643,2026-02-02 14:21:50,[108565|0]
1644,2026-02-02 14:21:50,[108602|0]
1645,2026-02-02 14:21:50,[108661|0]
1646,2026-02-02 14:21:50,[108713|0]
1647,2026-02-02 14:21:50,[108761|0]
1648,2026-02-02 14:21:50,[108848|0]
1649,2026-02-02 14:21:50,[108906|0]
1650,2026-02-02 14:21:50,[108984|0]
1651,2026-02-02 14:21:50,[108984|0]
1652,2026-02-02 14:21:50,[109093|0]
1653,2026-02-02 14:21:50,[109211|0]
1654,2026-02-02 14:21:50,[109204|0]
1655,2026-02-02 14:21:50,[108577|0]
1656,2026-02-02 14:21:50,[108256|0]
1657,2026-02-02 14:21:50,[108278|0]
1658,2026-02-02 14:21:50,[108357|0]
1659,2026-02-02 14:21:51,[108434|0]
1660,2026-02-02 14:21:51,[108521|0]
1661,2026-02-02 14:21:51,[108537|0]
1662,2026-02-02 14:21:51,[108475|0]
1663,2026-02-02 14:21:51,[108452|0]
1664,2026-02-02 14:21:51,[108495|0]
1665,2026-02-02 14:21:51,[108510|0]
1666,2026-02-02 14:21:51,[108529|0]
1667,2026-02-02 14:21:51,[108567|0]
1668,2026-02-02 14:21:51,[108699|0]
1669,2026-02-02 14:21:51,[108728|0]
1670,2026-02-02 14:21:51,[108754|0]
1671,2026-02-02 14:21:51,[108865|0]
1672,2026-02-02 14:21:51,[108907|0]
1673,2026-02-02 14:21:51,[108898|0]
1674,2026-02-02 14:21:51,[108463|0]
1675,2026-02-02 14:21:51,[108043|0]
1676,2026-02-02 14:21:51,[107986|0]
1677,2026-02-02 14:21:51,[108059|0]
1678,2026-02-02 14:21:51,[108107|0]
1679,2026-02-02 14:21:51,[108128|0]
1680,2026-02-02 14:21:51,[108237|0]
1681,2026-02-02 14:21:51,[108233|0]
1682,2026-02-02 14:21:51,[108161|0]
1683,2026-02-02 14:21:51,[108227|0]
1684,2026-02-02 14:21:52,[108274|0]
1685,2026-02-02 14:21:52,[108316|0]
1686,2026-02-02 14:21:52,[108419|0]
1687,2026-02-02 14:21:52,[108475|0]
1688,2026-02-02 14:21:52,[108490|0]
1689,2026-02-02 14:21:52,[108555|0]
1690,2026-02-02 14:21:52,[108612|0]
1691,2026-02-02 14:21:52,[108622|0]
1692,2026-02-02 14:21:52,[108726|0]
1693,2026-02-02 14:21:52,[108538|0]
1694,2026-02-02 14:21:52,[108066|0]
1695,2026-02-02 14:21:52,[107905|0]
1696,2026-02-02 14:21:52,[107910|0]
1697,2026-02-02 14:21:52,[107939|0]
1698,2026-02-02 14:21:52,[108029|0]
1699,2026-02-02 14:21:52,[108156|0]
1700,2026-02-02 14:21:52,[108176|0]
1701,2026-02-02 14:21:52,[108151|0]
1702,2026-02-02 14:21:52,[108151|0]
1703,2026-02-02 14:21:52,[108180|0]
1704,2026-02-02 14:21:52,[108311|0]
1705,2026-02-02 14:21:52,[108396|0]
1706,2026-02-02 14:21:52,[108490|0]
1707,2026-02-02 14:21:52,[108608|0]
1708,2026-02-02 14:21:53,[108657|0]
1709,2026-02-02 14:21:53,[108670|0]
1710,2026-02-02 14:21:53,[108761|0]
1711,2026-02-02 14:21:53,[108802|0]
1712,2026-02-02 14:21:53,[108871|0]
1713,2026-02-02 14:21:53,[108977|0]
1714,2026-02-02 14:21:53,[109093|0]
1715,2026-02-02 14:21:53,[108880|0]
1716,2026-02-02 14:21:53,[108175|0]
1717,2026-02-02 14:21:53,[107936|0]
1718,2026-02-02 14:21:53,[107952|0]
1719,2026-02-02 14:21:53,[108074|0]
1720,2026-02-02 14:21:53,[108126|0]
1721,2026-02-02 14:21:53,[108171|0]
1722,2026-02-02 14:21:53,[108233|0]
1723,2026-02-02 14:21:53,[108250|0]
1724,2026-02-02 14:21:53,[108190|0]
1725,2026-02-02 14:21:53,[108219|0]
1726,2026-02-02 14:21:53,[108308|0]
1727,2026-02-02 14:21:53,[108404|0]
1728,2026-02-02 14:21:53,[108517|0]
1729,2026-02-02 14:21:53,[108557|0]
1730,2026-02-02 14:21:53,[108596|0]
1731,2026-02-02 14:21:53,[108670|0]
1732,2026-02-02 14:21:53,[108709|0]
1733,2026-02-02 14:21:53,[108767|0]
1734,2026-02-02 14:21:54,[108878|0]
1735,2026-02-02 14:21:54,[108994|0]
1736,2026-02-02 14:21:54,[109088|0]
1737,2026-02-02 14:21:54,[109105|0]
1738,2026-02-02 14:21:54,[108455|0]
1739,2026-02-02 14:21:54,[108034|0]
1740,2026-02-02 14:21:54,[108042|0]
1741,2026-02-02 14:21:54,[108114|0]
1742,2026-02-02 14:21:54,[108214|0]
1743,2026-02-02 14:21:54,[108361|0]
1744,2026-02-02 14:21:54,[108423|0]
1745,2026-02-02 14:21:54,[108356|0]
1746,2026-02-02 14:21:54,[108283|0]
1747,2026-02-02 14:21:54,[108316|0]
1748,2026-02-02 14:21:54,[108420|0]
1749,2026-02-02 14:21:54,[108525|0]
1750,2026-02-02 14:21:54,[108606|0]
1751,2026-02-02 14:21:54,[108748|0]
1752,2026-02-02 14:21:54,[108865|0]
1753,2026-02-02 14:21:54,[108952|0]
1754,2026-02-02 14:21:54,[109061|0]
1755,2026-02-02 14:21:54,[109169|0]
1756,2026-02-02 14:21:54,[109245|0]
1757,2026-02-02 14:21:54,[109361|0]
1758,2026-02-02 14:21:54,[109491|0]
1759,2026-02-02 14:21:55,[109446|0]
1760,2026-02-02 14:21:55,[108622|0]
1761,2026-02-02 14:21:55,[108156|0]
1762,2026-02-02 14:21:55,[108160|0]
1763,2026-02-02 14:21:55,[108289|0]
1764,2026-02-02 14:21:55,[108289|0]
1765,2026-02-02 14:21:55,[108447|0]
1766,2026-02-02 14:21:55,[108592|0]
1767,2026-02-02 14:21:55,[108670|0]
1768,2026-02-02 14:21:55,[108643|0]
1769,2026-02-02 14:21:55,[108591|0]
1770,2026-02-02 14:21:55,[108610|0]
1771,2026-02-02 14:21:55,[108735|0]
1772,2026-02-02 14:21:55,[108906|0]
1773,2026-02-02 14:21:55,[109028|0]
1774,2026-02-02 14:21:55,[109126|0]
1775,2026-02-02 14:21:55,[109224|0]
1776,2026-02-02 14:21:55,[109309|0]
1777,2026-02-02 14:21:55,[109380|0]
1778,2026-02-02 14:21:55,[109467|0]
1779,2026-02-02 14:21:55,[109500|0]
1780,2026-02-02 14:21:55,[109581|0]
1781,2026-02-02 14:21:55,[109667|0]
1782,2026-02-02 14:21:55,[109528|0]
1783,2026-02-02 14:21:56,[108669|0]
1784,2026-02-02 14:21:56,[108260|0]
1785,2026-02-02 14:21:56,[108328|0]
1786,2026-02-02 14:21:56,[108493|0]
1787,2026-02-02 14:21:56,[108662|0]
1788,2026-02-02 14:21:56,[108910|0]
1789,2026-02-02 14:21:56,[109005|0]
1790,2026-02-02 14:21:56,[108972|0]
1791,2026-02-02 14:21:56,[108952|0]
1792,2026-02-02 14:21:56,[108999|0]
1793,2026-02-02 14:21:56,[109123|0]
1794,2026-02-02 14:21:56,[109331|0]
1795,2026-02-02 14:21:56,[109460|0]
1796,2026-02-02 14:21:56,[109556|0]
1797,2026-02-02 14:21:56,[109624|0]
1798,2026-02-02 14:21:56,[109685|0]
1799,2026-02-02 14:21:56,[109700|0]
1800,2026-02-02 14:21:56,[109783|0]
1801,2026-02-02 14:21:56,[109864|0]
1802,2026-02-02 14:21:56,[109951|0]
1803,2026-02-02 14:21:56,[109760|0]
1804,2026-02-02 14:21:56,[108915|0]
1805,2026-02-02 14:21:56,[108474|0]
1806,2026-02-02 14:21:56,[108595|0]
1807,2026-02-02 14:21:56,[108835|0]
1808,2026-02-02 14:21:56,[109093|0]
1809,2026-02-02 14:21:57,[109360|0]
1810,2026-02-02 14:21:57,[109437|0]
1811,2026-02-02 14:21:57,[109337|0]
1812,2026-02-02 14:21:57,[109369|0]
1813,2026-02-02 14:21:57,[109415|0]
1814,2026-02-02 14:21:57,[109531|0]
1815,2026-02-02 14:21:57,[109668|0]
1816,2026-02-02 14:21:57,[109765|0]
1817,2026-02-02 14:21:57,[109822|0]
1818,2026-02-02 14:21:57,[109884|0]
1819,2026-02-02 14:21:57,[109950|0]
1820,2026-02-02 14:21:57,[110004|0]
1821,2026-02-02 14:21:57,[110053|0]
1822,2026-02-02 14:21:57,[110122|0]
1823,2026-02-02 14:21:57,[110120|0]
1824,2026-02-02 14:21:57,[109446|0]
1825,2026-02-02 14:21:57,[108672|0]
1826,2026-02-02 14:21:57,[108618|0]
1827,2026-02-02 14:21:57,[108822|0]
1828,2026-02-02 14:21:57,[109110|0]
1829,2026-02-02 14:21:57,[109327|0]
1830,2026-02-02 14:21:57,[109480|0]
1831,2026-02-02 14:21:57,[109468|0]
1832,2026-02-02 14:21:57,[109419|0]
1833,2026-02-02 14:21:57,[109435|0]
1834,2026-02-02 14:21:58,[109530|0]
1835,2026-02-02 14:21:58,[109648|0]
1836,2026-02-02 14:21:58,[109799|0]
1837,2026-02-02 14:21:58,[109914|0]
1838,2026-02-02 14:21:58,[109999|0]
1839,2026-02-02 14:21:58,[110054|0]
1840,2026-02-02 14:21:58,[110079|0]
1841,2026-02-02 14:21:58,[110135|0]
1842,2026-02-02 14:21:58,[110264|0]
1843,2026-02-02 14:21:58,[110080|0]
1844,2026-02-02 14:21:58,[109255|0]
1845,2026-02-02 14:21:58,[108740|0]
1846,2026-02-02 14:21:58,[108793|0]
1847,2026-02-02 14:21:58,[109028|0]
1848,2026-02-02 14:21:58,[109281|0]
1849,2026-02-02 14:21:58,[109540|0]
1850,2026-02-02 14:21:58,[109595|0]
1851,2026-02-02 14:21:58,[109489|0]
1852,2026-02-02 14:21:58,[109443|0]
1853,2026-02-02 14:21:58,[109491|0]
1854,2026-02-02 14:21:58,[109624|0]
1855,2026-02-02 14:21:58,[109744|0]
1856,2026-02-02 14:21:58,[109860|0]
1857,2026-02-02 14:21:58,[109955|0]
1858,2026-02-02 14:21:59,[110013|0]
1859,2026-02-02 14:21:59,[110051|0]
1860,2026-02-02 14:21:59,[110099|0]
1861,2026-02-02 14:21:59,[110014|0]
1862,2026-02-02 14:21:59,[109299|0]
1863,2026-02-02 14:21:59,[108768|0]
1864,2026-02-02 14:21:59,[108791|0]
1865,2026-02-02 14:21:59,[109033|0]
1866,2026-02-02 14:21:59,[109315|0]
1867,2026-02-02 14:21:59,[109581|0]
1868,2026-02-02 14:21:59,[109698|0]
1869,2026-02-02 14:21:59,[109613|0]
1870,2026-02-02 14:21:59,[109542|0]
1871,2026-02-02 14:21:59,[109631|0]
1872,2026-02-02 14:21:59,[109773|0]
1873,2026-02-02 14:21:59,[109888|0]
1874,2026-02-02 14:21:59,[110019|0]
1875,2026-02-02 14:21:59,[110097|0]
1876,2026-02-02 14:21:59,[110131|0]
1877,2026-02-02 14:21:59,[110131|0]
1878,2026-02-02 14:21:59,[110223|0]
1879,2026-02-02 14:21:59,[110284|0]
1880,2026-02-02 14:21:59,[110321|0]
1881,2026-02-02 14:21:59,[109679|0]
1882,2026-02-02 14:21:59,[108949|0]
1883,2026-02-02 14:21:59,[108823|0]
1884,2026-02-02 14:22:00,[108995|0]
1885,2026-02-02 14:22:00,[109261|0]
1886,2026-02-02 14:22:00,[109516|0]
1887,2026-02-02 14:22:00,[109636|0]
1888,2026-02-02 14:22:00,[109581|0]
1889,2026-02-02 14:22:00,[109471|0]
1890,2026-02-02 14:22:00,[109495|0]
1891,2026-02-02 14:22:00,[109620|0]
1892,2026-02-02 14:22:00,[109747|0]
1893,2026-02-02 14:22:00,[109868|0]
1894,2026-02-02 14:22:00,[109968|0]
1895,2026-02-02 14:22:00,[110011|0]
1896,2026-02-02 14:22:00,[110070|0]
1897,2026-02-02 14:22:00,[110134|0]
1898,2026-02-02 14:22:00,[110190|0]
1899,2026-02-02 14:22:00,[109813|0]
1900,2026-02-02 14:22:00,[109047|0]
1901,2026-02-02 14:22:00,[108759|0]
1902,2026-02-02 14:22:00,[108918|0]
1903,2026-02-02 14:22:00,[109174|0]
1904,2026-02-02 14:22:00,[109466|0]
1905,2026-02-02 14:22:00,[109634|0]
1906,2026-02-02 14:22:00,[109593|0]
1907,2026-02-02 14:22:00,[109483|0]
1908,2026-02-02 14:22:00,[109511|0]
1909,2026-02-02 14:22:01,[109611|0]
1910,2026-02-02 14:22:01,[109713|0]
1911,2026-02-02 14:22:01,[109833|0]
1912,2026-02-02 14:22:01,[109925|0]
1913,2026-02-02 14:22:01,[109966|0]
1914,2026-02-02 14:22:01,[110043|0]
1915,2026-02-02 14:22:01,[110073|0]
1916,2026-02-02 14:22:01,[110115|0]
1917,2026-02-02 14:22:01,[110165|0]
1918,2026-02-02 14:22:01,[109799|0]
1919,2026-02-02 14:22:01,[109017|0]
1920,2026-02-02 14:22:01,[108779|0]
1921,2026-02-02 14:22:01,[108933|0]
1922,2026-02-02 14:22:01,[109179|0]
1923,2026-02-02 14:22:01,[109432|0]
1924,2026-02-02 14:22:01,[109623|0]
1925,2026-02-02 14:22:01,[109519|0]
1926,2026-02-02 14:22:01,[109430|0]
1927,2026-02-02 14:22:01,[109442|0]
1928,2026-02-02 14:22:01,[109521|0]
1929,2026-02-02 14:22:01,[109632|0]
1930,2026-02-02 14:22:01,[109741|0]
1931,2026-02-02 14:22:01,[109818|0]
1932,2026-02-02 14:22:01,[109923|0]
1933,2026-02-02 14:22:02,[109934|0]
1934,2026-02-02 14:22:02,[109976|0]
1935,2026-02-02 14:22:02,[110001|0]
1936,2026-02-02 14:22:02,[110033|0]
1937,2026-02-02 14:22:02,[109543|0]
1938,2026-02-02 14:22:02,[108807|0]
1939,2026-02-02 14:22:02,[108667|0]
1940,2026-02-02 14:22:02,[108801|0]
1941,2026-02-02 14:22:02,[108995|0]
1942,2026-02-02 14:22:02,[109228|0]
1943,2026-02-02 14:22:02,[109349|0]
1944,2026-02-02 14:22:02,[109311|0]
1945,2026-02-02 14:22:02,[109261|0]
1946,2026-02-02 14:22:02,[109312|0]
1947,2026-02-02 14:22:02,[109402|0]
1948,2026-02-02 14:22:02,[109501|0]
1949,2026-02-02 14:22:02,[109616|0]
1950,2026-02-02 14:22:02,[109711|0]
1951,2026-02-02 14:22:02,[109778|0]
1952,2026-02-02 14:22:02,[109837|0]
1953,2026-02-02 14:22:02,[109875|0]
1954,2026-02-02 14:22:02,[109927|0]
1955,2026-02-02 14:22:02,[109999|0]
1956,2026-02-02 14:22:02,[109908|0]
1957,2026-02-02 14:22:02,[109205|0]
1958,2026-02-02 14:22:02,[108686|0]
1959,2026-02-02 14:22:03,[108718|0]
1960,2026-02-02 14:22:03,[108884|0]
1961,2026-02-02 14:22:03,[109048|0]
1962,2026-02-02 14:22:03,[109263|0]
1963,2026-02-02 14:22:03,[109347|0]
1964,2026-02-02 14:22:03,[109309|0]
1965,2026-02-02 14:22:03,[109283|0]
1966,2026-02-02 14:22:03,[109337|0]
1967,2026-02-02 14:22:03,[109472|0]
1968,2026-02-02 14:22:03,[109621|0]
1969,2026-02-02 14:22:03,[109727|0]
1970,2026-02-02 14:22:03,[109786|0]
1971,2026-02-02 14:22:03,[109876|0]
1972,2026-02-02 14:22:03,[109921|0]
1973,2026-02-02 14:22:03,[109980|0]
1974,2026-02-02 14:22:03,[110048|0]
1975,2026-02-02 14:22:03,[110127|0]
1976,2026-02-02 14:22:03,[110179|0]
1977,2026-02-02 14:22:03,[109722|0]
1978,2026-02-02 14:22:03,[108928|0]
1979,2026-02-02 14:22:03,[108741|0]
1980,2026-02-02 14:22:03,[108905|0]
1981,2026-02-02 14:22:03,[109101|0]
1982,2026-02-02 14:22:03,[109290|0]
1983,2026-02-02 14:22:03,[109435|0]
1984,2026-02-02 14:22:04,[109398|0]
1985,2026-02-02 14:22:04,[109305|0]
1986,2026-02-02 14:22:04,[109295|0]
1987,2026-02-02 14:22:04,[109441|0]
1988,2026-02-02 14:22:04,[109559|0]
1989,2026-02-02 14:22:04,[109559|0]
1990,2026-02-02 14:22:04,[109694|0]
1991,2026-02-02 14:22:04,[109766|0]
1992,2026-02-02 14:22:04,[109836|0]
1993,2026-02-02 14:22:04,[109907|0]
1994,2026-02-02 14:22:04,[109954|0]
1995,2026-02-02 14:22:04,[110003|0]
1996,2026-02-02 14:22:04,[110106|0]
1997,2026-02-02 14:22:04,[109899|0]
1998,2026-02-02 14:22:04,[109246|0]
1999,2026-02-02 14:22:04,[108831|0]
2000,2026-02-02 14:22:04,[108880|0]
2001,2026-02-02 14:22:04,[109080|0]
2002,2026-02-02 14:22:04,[109305|0]
2003,2026-02-02 14:22:04,[109443|0]
2004,2026-02-02 14:22:04,[109453|0]
2005,2026-02-02 14:22:04,[109382|0]
2006,2026-02-02 14:22:04,[109341|0]
2007,2026-02-02 14:22:04,[109401|0]
2008,2026-02-02 14:22:05,[109520|0]
2009,2026-02-02 14:22:05,[109582|0]
2010,2026-02-02 14:22:05,[109709|0]
2011,2026-02-02 14:22:05,[109778|0]
2012,2026-02-02 14:22:05,[109809|0]
2013,2026-02-02 14:22:05,[109834|0]
2014,2026-02-02 14:22:05,[109871|0]
2015,2026-02-02 14:22:05,[109869|0]
2016,2026-02-02 14:22:05,[109970|0]
2017,2026-02-02 14:22:05,[109534|0]
2018,2026-02-02 14:22:05,[108792|0]
2019,2026-02-02 14:22:05,[108636|0]
2020,2026-02-02 14:22:05,[108729|0]
2021,2026-02-02 14:22:05,[108866|0]
2022,2026-02-02 14:22:05,[109043|0]
2023,2026-02-02 14:22:05,[109168|0]
2024,2026-02-02 14:22:05,[109153|0]
2025,2026-02-02 14:22:05,[109079|0]
2026,2026-02-02 14:22:05,[109090|0]
2027,2026-02-02 14:22:05,[109154|0]
2028,2026-02-02 14:22:05,[109318|0]
2029,2026-02-02 14:22:05,[109422|0]
2030,2026-02-02 14:22:05,[109499|0]
2031,2026-02-02 14:22:05,[109602|0]
2032,2026-02-02 14:22:05,[109645|0]
2033,2026-02-02 14:22:05,[109633|0]
2034,2026-02-02 14:22:06,[109691|0]
2035,2026-02-02 14:22:06,[109747|0]
2036,2026-02-02 14:22:06,[109832|0]
2037,2026-02-02 14:22:06,[109925|0]
2038,2026-02-02 14:22:06,[109529|0]
2039,2026-02-02 14:22:06,[108753|0]
2040,2026-02-02 14:22:06,[108609|0]
2041,2026-02-02 14:22:06,[108706|0]
2042,2026-02-02 14:22:06,[108854|0]
2043,2026-02-02 14:22:06,[109002|0]
2044,2026-02-02 14:22:06,[109158|0]
2045,2026-02-02 14:22:06,[109107|0]
2046,2026-02-02 14:22:06,[109047|0]
2047,2026-02-02 14:22:06,[109078|0]
2048,2026-02-02 14:22:06,[109147|0]
2049,2026-02-02 14:22:06,[109240|0]
2050,2026-02-02 14:22:06,[109374|0]
2051,2026-02-02 14:22:06,[109433|0]
2052,2026-02-02 14:22:06,[109523|0]
2053,2026-02-02 14:22:06,[109581|0]
2054,2026-02-02 14:22:06,[109587|0]
2055,2026-02-02 14:22:06,[109641|0]
2056,2026-02-02 14:22:06,[109730|0]
2057,2026-02-02 14:22:06,[109782|0]
2058,2026-02-02 14:22:06,[109726|0]
2059,2026-02-02 14:22:07,[109083|0]
2060,2026-02-02 14:22:07,[108614|0]
2061,2026-02-02 14:22:07,[108630|0]
2062,2026-02-02 14:22:07,[108732|0]
2063,2026-02-02 14:22:07,[108865|0]
2064,2026-02-02 14:22:07,[109081|0]
2065,2026-02-02 14:22:07,[109113|0]
2066,2026-02-02 14:22:07,[109036|0]
2067,2026-02-02 14:22:07,[108978|0]
2068,2026-02-02 14:22:07,[109009|0]
2069,2026-02-02 14:22:07,[109112|0]
2070,2026-02-02 14:22:07,[109259|0]
2071,2026-02-02 14:22:07,[109383|0]
2072,2026-02-02 14:22:07,[109450|0]
2073,2026-02-02 14:22:07,[109501|0]
2074,2026-02-02 14:22:07,[109520|0]
2075,2026-02-02 14:22:07,[109573|0]
2076,2026-02-02 14:22:07,[109648|0]
2077,2026-02-02 14:22:07,[109679|0]
2078,2026-02-02 14:22:07,[109710|0]
2079,2026-02-02 14:22:07,[109839|0]
2080,2026-02-02 14:22:07,[109625|0]
2081,2026-02-02 14:22:07,[108776|0]
2082,2026-02-02 14:22:07,[108466|0]
2083,2026-02-02 14:22:08,[108496|0]
2084,2026-02-02 14:22:08,[108601|0]
2085,2026-02-02 14:22:08,[108708|0]
2086,2026-02-02 14:22:08,[108818|0]
2087,2026-02-02 14:22:08,[108892|0]
2088,2026-02-02 14:22:08,[108851|0]
2089,2026-02-02 14:22:08,[108806|0]
2090,2026-02-02 14:22:08,[108907|0]
2091,2026-02-02 14:22:08,[109012|0]
2092,2026-02-02 14:22:08,[109133|0]
2093,2026-02-02 14:22:08,[109299|0]
2094,2026-02-02 14:22:08,[109390|0]
2095,2026-02-02 14:22:08,[109441|0]
2096,2026-02-02 14:22:08,[109498|0]
2097,2026-02-02 14:22:08,[109538|0]
2098,2026-02-02 14:22:08,[109562|0]
2099,2026-02-02 14:22:08,[109614|0]
2100,2026-02-02 14:22:08,[109682|0]
2101,2026-02-02 14:22:08,[109769|0]
2102,2026-02-02 14:22:08,[109829|0]
2103,2026-02-02 14:22:08,[109429|0]
2104,2026-02-02 14:22:08,[109429|0]
2105,2026-02-02 14:22:08,[108599|0]
2106,2026-02-02 14:22:08,[108419|0]
2107,2026-02-02 14:22:08,[108535|0]
2108,2026-02-02 14:22:08,[108723|0]
2109,2026-02-02 14:22:09,[108832|0]
2110,2026-02-02 14:22:09,[108998|0]
2111,2026-02-02 14:22:09,[108974|0]
2112,2026-02-02 14:22:09,[108860|0]
2113,2026-02-02 14:22:09,[108891|0]
2114,2026-02-02 14:22:09,[108970|0]
2115,2026-02-02 14:22:09,[109120|0]
2116,2026-02-02 14:22:09,[109306|0]
2117,2026-02-02 14:22:09,[109402|0]
2118,2026-02-02 14:22:09,[109501|0]
2119,2026-02-02 14:22:09,[109570|0]
2120,2026-02-02 14:22:09,[109630|0]
2121,2026-02-02 14:22:09,[109678|0]
2122,2026-02-02 14:22:09,[109724|0]
2123,2026-02-02 14:22:09,[109740|0]
2124,2026-02-02 14:22:09,[109832|0]
2125,2026-02-02 14:22:09,[109945|0]
2126,2026-02-02 14:22:09,[109613|0]
2127,2026-02-02 14:22:09,[108778|0]
2128,2026-02-02 14:22:09,[108537|0]
2129,2026-02-02 14:22:09,[108597|0]
2130,2026-02-02 14:22:09,[108787|0]
2131,2026-02-02 14:22:09,[109027|0]
2132,2026-02-02 14:22:09,[109201|0]
2133,2026-02-02 14:22:09,[109193|0]
2134,2026-02-02 14:22:10,[109119|0]
2135,2026-02-02 14:22:10,[109104|0]
2136,2026-02-02 14:22:10,[109228|0]
2137,2026-02-02 14:22:10,[109383|0]
2138,2026-02-02 14:22:10,[109532|0]
2139,2026-02-02 14:22:10,[109606|0]
2140,2026-02-02 14:22:10,[109698|0]
2141,2026-02-02 14:22:10,[109732|0]
2142,2026-02-02 14:22:10,[109778|0]
2143,2026-02-02 14:22:10,[109839|0]
2144,2026-02-02 14:22:10,[109907|0]
2145,2026-02-02 14:22:10,[109949|0]
2146,2026-02-02 14:22:10,[110017|0]
2147,2026-02-02 14:22:10,[110090|0]
2148,2026-02-02 14:22:10,[109999|0]
2149,2026-02-02 14:22:10,[109226|0]
2150,2026-02-02 14:22:10,[108638|0]
2151,2026-02-02 14:22:10,[108680|0]
2152,2026-02-02 14:22:10,[108902|0]
2153,2026-02-02 14:22:10,[109045|0]
2154,2026-02-02 14:22:10,[109303|0]
2155,2026-02-02 14:22:10,[109419|0]
2156,2026-02-02 14:22:10,[109378|0]
2157,2026-02-02 14:22:10,[109346|0]
2158,2026-02-02 14:22:10,[109383|0]
2159,2026-02-02 14:22:10,[109466|0]
2160,2026-02-02 14:22:11,[109631|0]
2161,2026-02-02 14:22:11,[109749|0]
2162,2026-02-02 14:22:11,[109838|0]
2163,2026-02-02 14:22:11,[109873|0]
2164,2026-02-02 14:22:11,[109893|0]
2165,2026-02-02 14:22:11,[109969|0]
2166,2026-02-02 14:22:11,[110047|0]
2167,2026-02-02 14:22:11,[110076|0]
2168,2026-02-02 14:22:11,[110142|0]
2169,2026-02-02 14:22:11,[110249|0]
2170,2026-02-02 14:22:11,[110213|0]
2171,2026-02-02 14:22:11,[109484|0]
2172,2026-02-02 14:22:11,[108856|0]
2173,2026-02-02 14:22:11,[108806|0]
2174,2026-02-02 14:22:11,[108978|0]
2175,2026-02-02 14:22:11,[109247|0]
2176,2026-02-02 14:22:11,[109445|0]
2177,2026-02-02 14:22:11,[109533|0]
2178,2026-02-02 14:22:11,[109505|0]
2179,2026-02-02 14:22:11,[109419|0]
2180,2026-02-02 14:22:11,[109456|0]
2181,2026-02-02 14:22:11,[109567|0]
2182,2026-02-02 14:22:11,[109688|0]
2183,2026-02-02 14:22:11,[109807|0]
2184,2026-02-02 14:22:12,[109932|0]
2185,2026-02-02 14:22:12,[110000|0]
2186,2026-02-02 14:22:12,[110059|0]
2187,2026-02-02 14:22:12,[110090|0]
2188,2026-02-02 14:22:12,[110136|0]
2189,2026-02-02 14:22:12,[110204|0]
2190,2026-02-02 14:22:12,[110324|0]
2191,2026-02-02 14:22:12,[110195|0]
2192,2026-02-02 14:22:12,[109502|0]
2193,2026-02-02 14:22:12,[108928|0]
2194,2026-02-02 14:22:12,[108924|0]
2195,2026-02-02 14:22:12,[109124|0]
2196,2026-02-02 14:22:12,[109422|0]
2197,2026-02-02 14:22:12,[109665|0]
2198,2026-02-02 14:22:12,[109722|0]
2199,2026-02-02 14:22:12,[109625|0]
2200,2026-02-02 14:22:12,[109549|0]
2201,2026-02-02 14:22:12,[109599|0]
2202,2026-02-02 14:22:12,[109732|0]
2203,2026-02-02 14:22:12,[109853|0]
2204,2026-02-02 14:22:12,[109972|0]
2205,2026-02-02 14:22:12,[110042|0]
2206,2026-02-02 14:22:12,[110075|0]
2207,2026-02-02 14:22:12,[110164|0]
2208,2026-02-02 14:22:12,[110189|0]
2209,2026-02-02 14:22:13,[110238|0]
2210,2026-02-02 14:22:13,[110293|0]
2211,2026-02-02 14:22:13,[110327|0]
2212,2026-02-02 14:22:13,[109753|0]
2213,2026-02-02 14:22:13,[109012|0]
2214,2026-02-02 14:22:13,[108855|0]
2215,2026-02-02 14:22:13,[109030|0]
2216,2026-02-02 14:22:13,[109294|0]
2217,2026-02-02 14:22:13,[109508|0]
2218,2026-02-02 14:22:13,[109627|0]
2219,2026-02-02 14:22:13,[109626|0]
2220,2026-02-02 14:22:13,[109626|0]
2221,2026-02-02 14:22:13,[109548|0]
2222,2026-02-02 14:22:13,[109563|0]
2223,2026-02-02 14:22:13,[109659|0]
2224,2026-02-02 14:22:13,[109784|0]
2225,2026-02-02 14:22:13,[109892|0]
2226,2026-02-02 14:22:13,[109998|0]
2227,2026-02-02 14:22:13,[110054|0]
2228,2026-02-02 14:22:13,[110077|0]
2229,2026-02-02 14:22:13,[110111|0]
2230,2026-02-02 14:22:13,[110167|0]
2231,2026-02-02 14:22:13,[110214|0]
2232,2026-02-02 14:22:13,[110172|0]
2233,2026-02-02 14:22:14,[109550|0]
2234,2026-02-02 14:22:14,[108930|0]
2235,2026-02-02 14:22:14,[108853|0]
2236,2026-02-02 14:22:14,[109057|0]
2237,2026-02-02 14:22:14,[109231|0]
2238,2026-02-02 14:22:14,[109493|0]
2239,2026-02-02 14:22:14,[109597|0]
2240,2026-02-02 14:22:14,[109532|0]
2241,2026-02-02 14:22:14,[109509|0]
2242,2026-02-02 14:22:14,[109542|0]
2243,2026-02-02 14:22:14,[109592|0]
2244,2026-02-02 14:22:14,[109744|0]
2245,2026-02-02 14:22:14,[109869|0]
2246,2026-02-02 14:22:14,[109945|0]
2247,2026-02-02 14:22:14,[109988|0]
2248,2026-02-02 14:22:14,[110033|0]
2249,2026-02-02 14:22:14,[110022|0]
2250,2026-02-02 14:22:14,[110102|0]
2251,2026-02-02 14:22:14,[109728|0]
2252,2026-02-02 14:22:14,[109085|0]
2253,2026-02-02 14:22:14,[108848|0]
2254,2026-02-02 14:22:14,[108978|0]
2255,2026-02-02 14:22:14,[109197|0]
2256,2026-02-02 14:22:14,[109450|0]
2257,2026-02-02 14:22:14,[109597|0]
2258,2026-02-02 14:22:14,[109588|0]
2259,2026-02-02 14:22:15,[109513|0]
2260,2026-02-02 14:22:15,[109527|0]
2261,2026-02-02 14:22:15,[109597|0]
2262,2026-02-02 14:22:15,[109718|0]
2263,2026-02-02 14:22:15,[109839|0]
2264,2026-02-02 14:22:15,[109895|0]
2265,2026-02-02 14:22:15,[109945|0]
2266,2026-02-02 14:22:15,[109985|0]
2267,2026-02-02 14:22:15,[109986|0]
2268,2026-02-02 14:22:15,[110076|0]
2269,2026-02-02 14:22:15,[109936|0]
2270,2026-02-02 14:22:15,[109269|0]
2271,2026-02-02 14:22:15,[108821|0]
2272,2026-02-02 14:22:15,[108874|0]
2273,2026-02-02 14:22:15,[109083|0]
2274,2026-02-02 14:22:15,[109364|0]
2275,2026-02-02 14:22:15,[109606|0]
2276,2026-02-02 14:22:15,[109664|0]
2277,2026-02-02 14:22:15,[109506|0]
2278,2026-02-02 14:22:15,[109474|0]
2279,2026-02-02 14:22:15,[109698|0]
2280,2026-02-02 14:22:15,[110037|0]
2281,2026-02-02 14:22:15,[110364|0]
2282,2026-02-02 14:22:15,[110606|0]
2283,2026-02-02 14:22:15,[110829|0]
2284,2026-02-02 14:22:16,[111080|0]
2285,2026-02-02 14:22:16,[111288|0]
2286,2026-02-02 14:22:16,[111468|0]
2287,2026-02-02 14:22:16,[111571|0]
2288,2026-02-02 14:22:16,[111731|0]
2289,2026-02-02 14:22:16,[111743|0]
2290,2026-02-02 14:22:16,[111401|0]
2291,2026-02-02 14:22:16,[111139|0]
2292,2026-02-02 14:22:16,[111182|0]
2293,2026-02-02 14:22:16,[111291|0]
2294,2026-02-02 14:22:16,[111412|0]
2295,2026-02-02 14:22:16,[111452|0]
2296,2026-02-02 14:22:16,[111463|0]
2297,2026-02-02 14:22:16,[111481|0]
2298,2026-02-02 14:22:16,[111490|0]
2299,2026-02-02 14:22:16,[111501|0]
2300,2026-02-02 14:22:16,[111530|0]
2301,2026-02-02 14:22:16,[111550|0]
2302,2026-02-02 14:22:16,[111539|0]
2303,2026-02-02 14:22:16,[111556|0]
2304,2026-02-02 14:22:16,[111586|0]
2305,2026-02-02 14:22:16,[111589|0]
2306,2026-02-02 14:22:16,[111617|0]
2307,2026-02-02 14:22:16,[111627|0]
2308,2026-02-02 14:22:17,[111557|0]
2309,2026-02-02 14:22:17,[111414|0]
2310,2026-02-02 14:22:17,[111253|0]
2311,2026-02-02 14:22:17,[111275|0]
2312,2026-02-02 14:22:17,[111367|0]
2313,2026-02-02 14:22:17,[111414|0]
2314,2026-02-02 14:22:17,[111463|0]
2315,2026-02-02 14:22:17,[111462|0]
2316,2026-02-02 14:22:17,[111468|0]
2317,2026-02-02 14:22:17,[111489|0]
2318,2026-02-02 14:22:17,[111511|0]
2319,2026-02-02 14:22:17,[111527|0]
2320,2026-02-02 14:22:17,[111534|0]
2321,2026-02-02 14:22:17,[111554|0]
2322,2026-02-02 14:22:17,[111575|0]
2323,2026-02-02 14:22:17,[111566|0]
2324,2026-02-02 14:22:17,[111577|0]
2325,2026-02-02 14:22:17,[111583|0]
2326,2026-02-02 14:22:17,[111617|0]
2327,2026-02-02 14:22:17,[111621|0]
2328,2026-02-02 14:22:17,[111418|0]
2329,2026-02-02 14:22:17,[111220|0]
2330,2026-02-02 14:22:17,[111258|0]
2331,2026-02-02 14:22:17,[111392|0]
2332,2026-02-02 14:22:17,[111461|0]
2333,2026-02-02 14:22:17,[111511|0]
2334,2026-02-02 14:22:18,[111522|0]
2335,2026-02-02 14:22:18,[111522|0]
2336,2026-02-02 14:22:18,[111496|0]
2337,2026-02-02 14:22:18,[111496|0]
2338,2026-02-02 14:22:18,[111528|0]
2339,2026-02-02 14:22:18,[111503|0]
2340,2026-02-02 14:22:18,[111527|0]
2341,2026-02-02 14:22:18,[111550|0]
2342,2026-02-02 14:22:18,[111565|0]
2343,2026-02-02 14:22:18,[111559|0]
2344,2026-02-02 14:22:18,[111587|0]
2345,2026-02-02 14:22:18,[111572|0]
2346,2026-02-02 14:22:18,[111572|0]
2347,2026-02-02 14:22:18,[111589|0]
2348,2026-02-02 14:22:18,[111602|0]
2349,2026-02-02 14:22:18,[111617|0]
2350,2026-02-02 14:22:18,[111577|0]
2351,2026-02-02 14:22:18,[111303|0]
2352,2026-02-02 14:22:18,[111109|0]
2353,2026-02-02 14:22:18,[111149|0]
2354,2026-02-02 14:22:18,[111291|0]
2355,2026-02-02 14:22:18,[111365|0]
2356,2026-02-02 14:22:18,[111430|0]
2357,2026-02-02 14:22:18,[111418|0]
2358,2026-02-02 14:22:18,[111439|0]
2359,2026-02-02 14:22:19,[111468|0]
2360,2026-02-02 14:22:19,[111482|0]
2361,2026-02-02 14:22:19,[111489|0]
2362,2026-02-02 14:22:19,[111499|0]
2363,2026-02-02 14:22:19,[111494|0]
2364,2026-02-02 14:22:19,[111514|0]
2365,2026-02-02 14:22:19,[111504|0]
2366,2026-02-02 14:22:19,[111517|0]
2367,2026-02-02 14:22:19,[111549|0]
2368,2026-02-02 14:22:19,[111559|0]
2369,2026-02-02 14:22:19,[111536|0]
2370,2026-02-02 14:22:19,[111585|0]
2371,2026-02-02 14:22:19,[111588|0]
2372,2026-02-02 14:22:19,[111593|0]
2373,2026-02-02 14:22:19,[111583|0]
2374,2026-02-02 14:22:19,[111448|0]
2375,2026-02-02 14:22:19,[111151|0]
2376,2026-02-02 14:22:19,[111095|0]
2377,2026-02-02 14:22:19,[111183|0]
2378,2026-02-02 14:22:19,[111304|0]
2379,2026-02-02 14:22:19,[111385|0]
2380,2026-02-02 14:22:19,[111408|0]
2381,2026-02-02 14:22:19,[111367|0]
2382,2026-02-02 14:22:19,[111393|0]
2383,2026-02-02 14:22:20,[111419|0]
2384,2026-02-02 14:22:20,[111437|0]
2385,2026-02-02 14:22:20,[111459|0]
2386,2026-02-02 14:22:20,[111488|0]
2387,2026-02-02 14:22:20,[111475|0]
2388,2026-02-02 14:22:20,[111502|0]
2389,2026-02-02 14:22:20,[111511|0]
2390,2026-02-02 14:22:20,[111527|0]
2391,2026-02-02 14:22:20,[111515|0]
2392,2026-02-02 14:22:20,[111512|0]
2393,2026-02-02 14:22:20,[111488|0]
2394,2026-02-02 14:22:20,[111526|0]
2395,2026-02-02 14:22:20,[111545|0]
2396,2026-02-02 14:22:20,[111512|0]
2397,2026-02-02 14:22:20,[111279|0]
2398,2026-02-02 14:22:20,[111095|0]
2399,2026-02-02 14:22:20,[111127|0]
2400,2026-02-02 14:22:20,[111258|0]
2401,2026-02-02 14:22:20,[111337|0]
2402,2026-02-02 14:22:20,[111387|0]
2403,2026-02-02 14:22:20,[111406|0]
2404,2026-02-02 14:22:20,[111396|0]
2405,2026-02-02 14:22:20,[111382|0]
2406,2026-02-02 14:22:20,[111409|0]
2407,2026-02-02 14:22:20,[111425|0]
2408,2026-02-02 14:22:20,[111453|0]
2409,2026-02-02 14:22:21,[111463|0]
2410,2026-02-02 14:22:21,[111428|0]
2411,2026-02-02 14:22:21,[111429|0]
2412,2026-02-02 14:22:21,[111460|0]
2413,2026-02-02 14:22:21,[111459|0]
2414,2026-02-02 14:22:21,[111477|0]
2415,2026-02-02 14:22:21,[111459|0]
2416,2026-02-02 14:22:21,[111470|0]
2417,2026-02-02 14:22:21,[111486|0]
2418,2026-02-02 14:22:21,[111484|0]
2419,2026-02-02 14:22:21,[111490|0]
2420,2026-02-02 14:22:21,[111420|0]
2421,2026-02-02 14:22:21,[111225|0]
2422,2026-02-02 14:22:21,[111061|0]
2423,2026-02-02 14:22:21,[111119|0]
2424,2026-02-02 14:22:21,[111209|0]
2425,2026-02-02 14:22:21,[111285|0]
2426,2026-02-02 14:22:21,[111308|0]
2427,2026-02-02 14:22:21,[111325|0]
2428,2026-02-02 14:22:21,[111314|0]
2429,2026-02-02 14:22:21,[111317|0]
2430,2026-02-02 14:22:21,[111334|0]
2431,2026-02-02 14:22:21,[111358|0]
2432,2026-02-02 14:22:21,[111370|0]
2433,2026-02-02 14:22:21,[111407|0]
2434,2026-02-02 14:22:22,[111387|0]
2435,2026-02-02 14:22:22,[111407|0]
2436,2026-02-02 14:22:22,[111423|0]
2437,2026-02-02 14:22:22,[111428|0]
2438,2026-02-02 14:22:22,[111413|0]
2439,2026-02-02 14:22:22,[111448|0]
2440,2026-02-02 14:22:22,[111455|0]
2441,2026-02-02 14:22:22,[111461|0]
2442,2026-02-02 14:22:22,[111478|0]
2443,2026-02-02 14:22:22,[111446|0]
2444,2026-02-02 14:22:22,[111327|0]
2445,2026-02-02 14:22:22,[111188|0]
2446,2026-02-02 14:22:22,[111178|0]
2447,2026-02-02 14:22:22,[111249|0]
2448,2026-02-02 14:22:22,[111312|0]
2449,2026-02-02 14:22:22,[111337|0]
2450,2026-02-02 14:22:22,[111337|0]
2451,2026-02-02 14:22:22,[111351|0]
2452,2026-02-02 14:22:22,[111337|0]
2453,2026-02-02 14:22:22,[111303|0]
