Packet_Number,Timestamp,Data
1,2026-02-02 14:20:44,[104799|0]
2,2026-02-02 14:20:44,[104803|0]
3,2026-02-02 14:20:44,[104809|0]
4,2026-02-02 14:20:44,[104827|0]
5,2026-02-02 14:20:44,[104802|0]
6,2026-02-02 14:20:44,[104823|0]
7,2026-02-02 14:20:44,[104838|0]
8,2026-02-02 14:20:44,[104846|0]
9,2026-02-02 14:20:45,[104846|0]
10,2026-02-02 14:20:45,[104828|0]
11,2026-02-02 14:20:45,[104800|0]
12,2026-02-02 14:20:45,[104804|0]
13,2026-02-02 14:20:45,[104767|0]
14,2026-02-02 14:20:45,[104717|0]
15,2026-02-02 14:20:45,[104724|0]
16,2026-02-02 14:20:45,[104725|0]
17,2026-02-02 14:20:45,[104713|0]
18,2026-02-02 14:20:45,[104732|0]
19,2026-02-02 14:20:45,[104734|0]
20,2026-02-02 14:20:45,[104748|0]
21,2026-02-02 14:20:45,[104794|0]
22,2026-02-02 14:20:45,[104864|0]
23,2026-02-02 14:20:45,[104872|0]
24,2026-02-02 14:20:45,[104953|0]
25,2026-02-02 14:20:45,[104978|0]
26,2026-02-02 14:20:45,[104956|0]
27,2026-02-02 14:20:45,[104962|0]
28,2026-02-02 14:20:45,[104949|0]
29,2026-02-02 14:20:45,[104886|0]
30,2026-02-02 14:20:45,[104937|0]
31,2026-02-02 14:20:45,[105015|0]
32,2026-02-02 14:20:45,[104974|0]
33,2026-02-02 14:20:45,[104937|0]
34,2026-02-02 14:20:46,[104802|0]
35,2026-02-02 14:20:46,[104776|0]
36,2026-02-02 14:20:46,[104862|0]
37,2026-02-02 14:20:46,[104880|0]
38,2026-02-02 14:20:46,[104859|0]
39,2026-02-02 14:20:46,[104828|0]
40,2026-02-02 14:20:46,[104839|0]
41,2026-02-02 14:20:46,[104796|0]
42,2026-02-02 14:20:46,[104751|0]
43,2026-02-02 14:20:46,[104715|0]
44,2026-02-02 14:20:46,[104649|0]
45,2026-02-02 14:20:46,[104637|0]
46,2026-02-02 14:20:46,[104621|0]
47,2026-02-02 14:20:46,[104667|0]
48,2026-02-02 14:20:46,[104709|0]
49,2026-02-02 14:20:46,[104781|0]
50,2026-02-02 14:20:46,[104750|0]
51,2026-02-02 14:20:46,[104736|0]
52,2026-02-02 14:20:46,[104648|0]
53,2026-02-02 14:20:46,[104615|0]
54,2026-02-02 14:20:46,[104593|0]
55,2026-02-02 14:20:46,[104589|0]
56,2026-02-02 14:20:46,[104618|0]
57,2026-02-02 14:20:46,[104592|0]
58,2026-02-02 14:20:46,[104570|0]
59,2026-02-02 14:20:46,[104594|0]
60,2026-02-02 14:20:47,[104640|0]
61,2026-02-02 14:20:47,[104632|0]
62,2026-02-02 14:20:47,[104632|0]
63,2026-02-02 14:20:47,[104620|0]
64,2026-02-02 14:20:47,[104625|0]
65,2026-02-02 14:20:47,[104601|0]
66,2026-02-02 14:20:47,[104618|0]
67,2026-02-02 14:20:47,[104638|0]
68,2026-02-02 14:20:47,[104656|0]
69,2026-02-02 14:20:47,[104673|0]
70,2026-02-02 14:20:47,[104652|0]
71,2026-02-02 14:20:47,[104539|0]
72,2026-02-02 14:20:47,[104404|0]
73,2026-02-02 14:20:47,[104376|0]
74,2026-02-02 14:20:47,[104453|0]
75,2026-02-02 14:20:47,[104534|0]
76,2026-02-02 14:20:47,[104568|0]
77,2026-02-02 14:20:47,[104577|0]
78,2026-02-02 14:20:47,[104584|0]
79,2026-02-02 14:20:47,[104582|0]
80,2026-02-02 14:20:47,[104610|0]
81,2026-02-02 14:20:47,[104640|0]
82,2026-02-02 14:20:47,[104666|0]
83,2026-02-02 14:20:47,[104659|0]
84,2026-02-02 14:20:48,[104700|0]
85,2026-02-02 14:20:48,[104714|0]
86,2026-02-02 14:20:48,[104727|0]
87,2026-02-02 14:20:48,[104731|0]
88,2026-02-02 14:20:48,[104734|0]
89,2026-02-02 14:20:48,[104694|0]
90,2026-02-02 14:20:48,[104561|0]
91,2026-02-02 14:20:48,[104439|0]
92,2026-02-02 14:20:48,[104439|0]
93,2026-02-02 14:20:48,[104504|0]
94,2026-02-02 14:20:48,[104597|0]
95,2026-02-02 14:20:48,[104644|0]
96,2026-02-02 14:20:48,[104686|0]
97,2026-02-02 14:20:48,[104680|0]
98,2026-02-02 14:20:48,[104645|0]
99,2026-02-02 14:20:48,[104675|0]
100,2026-02-02 14:20:48,[104689|0]
101,2026-02-02 14:20:48,[104685|0]
102,2026-02-02 14:20:48,[104733|0]
103,2026-02-02 14:20:48,[104735|0]
104,2026-02-02 14:20:48,[104758|0]
105,2026-02-02 14:20:48,[104750|0]
106,2026-02-02 14:20:48,[104746|0]
107,2026-02-02 14:20:48,[104718|0]
108,2026-02-02 14:20:48,[104598|0]
109,2026-02-02 14:20:49,[104477|0]
110,2026-02-02 14:20:49,[104506|0]
111,2026-02-02 14:20:49,[104566|0]
112,2026-02-02 14:20:49,[104639|0]
113,2026-02-02 14:20:49,[104664|0]
114,2026-02-02 14:20:49,[104697|0]
115,2026-02-02 14:20:49,[104689|0]
116,2026-02-02 14:20:49,[104666|0]
117,2026-02-02 14:20:49,[104689|0]
118,2026-02-02 14:20:49,[104715|0]
119,2026-02-02 14:20:49,[104705|0]
120,2026-02-02 14:20:49,[104756|0]
121,2026-02-02 14:20:49,[104764|0]
122,2026-02-02 14:20:49,[104789|0]
123,2026-02-02 14:20:49,[104774|0]
124,2026-02-02 14:20:49,[104759|0]
125,2026-02-02 14:20:49,[104715|0]
126,2026-02-02 14:20:49,[104703|0]
127,2026-02-02 14:20:49,[104496|0]
128,2026-02-02 14:20:49,[104399|0]
129,2026-02-02 14:20:49,[104447|0]
130,2026-02-02 14:20:49,[104530|0]
131,2026-02-02 14:20:49,[104562|0]
132,2026-02-02 14:20:49,[104635|0]
133,2026-02-02 14:20:50,[104616|0]
134,2026-02-02 14:20:50,[104571|0]
135,2026-02-02 14:20:50,[104565|0]
136,2026-02-02 14:20:50,[104554|0]
137,2026-02-02 14:20:50,[104576|0]
138,2026-02-02 14:20:50,[104629|0]
139,2026-02-02 14:20:50,[104641|0]
140,2026-02-02 14:20:50,[104659|0]
141,2026-02-02 14:20:50,[104679|0]
142,2026-02-02 14:20:50,[104658|0]
143,2026-02-02 14:20:50,[104675|0]
144,2026-02-02 14:20:50,[104680|0]
145,2026-02-02 14:20:50,[104529|0]
146,2026-02-02 14:20:50,[104421|0]
147,2026-02-02 14:20:50,[104407|0]
148,2026-02-02 14:20:50,[104448|0]
149,2026-02-02 14:20:50,[104527|0]
150,2026-02-02 14:20:50,[104595|0]
151,2026-02-02 14:20:50,[104589|0]
152,2026-02-02 14:20:50,[104541|0]
153,2026-02-02 14:20:50,[104509|0]
154,2026-02-02 14:20:50,[104520|0]
155,2026-02-02 14:20:50,[104569|0]
156,2026-02-02 14:20:50,[104601|0]
157,2026-02-02 14:20:50,[104610|0]
158,2026-02-02 14:20:50,[104660|0]
159,2026-02-02 14:20:51,[104650|0]
160,2026-02-02 14:20:51,[104643|0]
161,2026-02-02 14:20:51,[104656|0]
162,2026-02-02 14:20:51,[104671|0]
163,2026-02-02 14:20:51,[104641|0]
164,2026-02-02 14:20:51,[104467|0]
165,2026-02-02 14:20:51,[104293|0]
166,2026-02-02 14:20:51,[104211|0]
167,2026-02-02 14:20:51,[104278|0]
168,2026-02-02 14:20:51,[104351|0]
169,2026-02-02 14:20:51,[104358|0]
170,2026-02-02 14:20:51,[104339|0]
171,2026-02-02 14:20:51,[104342|0]
172,2026-02-02 14:20:51,[104309|0]
173,2026-02-02 14:20:51,[104318|0]
174,2026-02-02 14:20:51,[104377|0]
175,2026-02-02 14:20:51,[104377|0]
176,2026-02-02 14:20:51,[104403|0]
177,2026-02-02 14:20:51,[104414|0]
178,2026-02-02 14:20:51,[104441|0]
179,2026-02-02 14:20:51,[104440|0]
180,2026-02-02 14:20:51,[104450|0]
181,2026-02-02 14:20:51,[104439|0]
182,2026-02-02 14:20:51,[104473|0]
183,2026-02-02 14:20:51,[104497|0]
184,2026-02-02 14:20:52,[104496|0]
185,2026-02-02 14:20:52,[104315|0]
186,2026-02-02 14:20:52,[104122|0]
187,2026-02-02 14:20:52,[104153|0]
188,2026-02-02 14:20:52,[104237|0]
189,2026-02-02 14:20:52,[104287|0]
190,2026-02-02 14:20:52,[104346|0]
191,2026-02-02 14:20:52,[104335|0]
192,2026-02-02 14:20:52,[104323|0]
193,2026-02-02 14:20:52,[104315|0]
194,2026-02-02 14:20:52,[104323|0]
195,2026-02-02 14:20:52,[104322|0]
196,2026-02-02 14:20:52,[104320|0]
197,2026-02-02 14:20:52,[104352|0]
198,2026-02-02 14:20:52,[104387|0]
199,2026-02-02 14:20:52,[104373|0]
200,2026-02-02 14:20:52,[104400|0]
201,2026-02-02 14:20:52,[104396|0]
202,2026-02-02 14:20:52,[104404|0]
203,2026-02-02 14:20:52,[104400|0]
204,2026-02-02 14:20:52,[104319|0]
205,2026-02-02 14:20:52,[104124|0]
206,2026-02-02 14:20:52,[104077|0]
207,2026-02-02 14:20:52,[104109|0]
208,2026-02-02 14:20:53,[104150|0]
209,2026-02-02 14:20:53,[104200|0]
210,2026-02-02 14:20:53,[104260|0]
211,2026-02-02 14:20:53,[104224|0]
212,2026-02-02 14:20:53,[104219|0]
213,2026-02-02 14:20:53,[104192|0]
214,2026-02-02 14:20:53,[104204|0]
215,2026-02-02 14:20:53,[104264|0]
216,2026-02-02 14:20:53,[104324|0]
217,2026-02-02 14:20:53,[104342|0]
218,2026-02-02 14:20:53,[104383|0]
219,2026-02-02 14:20:53,[104374|0]
220,2026-02-02 14:20:53,[104379|0]
221,2026-02-02 14:20:53,[104398|0]
222,2026-02-02 14:20:53,[104435|0]
223,2026-02-02 14:20:53,[104437|0]
224,2026-02-02 14:20:53,[104422|0]
225,2026-02-02 14:20:53,[104253|0]
226,2026-02-02 14:20:53,[104059|0]
227,2026-02-02 14:20:53,[104022|0]
228,2026-02-02 14:20:53,[104133|0]
229,2026-02-02 14:20:53,[104187|0]
230,2026-02-02 14:20:53,[104213|0]
231,2026-02-02 14:20:53,[104245|0]
232,2026-02-02 14:20:53,[104219|0]
233,2026-02-02 14:20:53,[104140|0]
234,2026-02-02 14:20:54,[104234|0]
235,2026-02-02 14:20:54,[104288|0]
236,2026-02-02 14:20:54,[104318|0]
237,2026-02-02 14:20:54,[104384|0]
238,2026-02-02 14:20:54,[104457|0]
239,2026-02-02 14:20:54,[104413|0]
240,2026-02-02 14:20:54,[104440|0]
241,2026-02-02 14:20:54,[104458|0]
242,2026-02-02 14:20:54,[104439|0]
243,2026-02-02 14:20:54,[104435|0]
244,2026-02-02 14:20:54,[104483|0]
245,2026-02-02 14:20:54,[104529|0]
246,2026-02-02 14:20:54,[104424|0]
247,2026-02-02 14:20:54,[104168|0]
248,2026-02-02 14:20:54,[104161|0]
249,2026-02-02 14:20:54,[104191|0]
250,2026-02-02 14:20:54,[104254|0]
251,2026-02-02 14:20:54,[104345|0]
252,2026-02-02 14:20:54,[104404|0]
253,2026-02-02 14:20:54,[104372|0]
254,2026-02-02 14:20:54,[104351|0]
255,2026-02-02 14:20:54,[104355|0]
256,2026-02-02 14:20:54,[104360|0]
257,2026-02-02 14:20:54,[104359|0]
258,2026-02-02 14:20:54,[104410|0]
259,2026-02-02 14:20:55,[104439|0]
260,2026-02-02 14:20:55,[104465|0]
261,2026-02-02 14:20:55,[104460|0]
262,2026-02-02 14:20:55,[104444|0]
263,2026-02-02 14:20:55,[104448|0]
264,2026-02-02 14:20:55,[104479|0]
265,2026-02-02 14:20:55,[104486|0]
266,2026-02-02 14:20:55,[104493|0]
267,2026-02-02 14:20:55,[104317|0]
268,2026-02-02 14:20:55,[104155|0]
269,2026-02-02 14:20:55,[104166|0]
270,2026-02-02 14:20:55,[104247|0]
271,2026-02-02 14:20:55,[104316|0]
272,2026-02-02 14:20:55,[104355|0]
273,2026-02-02 14:20:55,[104365|0]
274,2026-02-02 14:20:55,[104325|0]
275,2026-02-02 14:20:55,[104299|0]
276,2026-02-02 14:20:55,[104322|0]
277,2026-02-02 14:20:55,[104351|0]
278,2026-02-02 14:20:55,[104359|0]
279,2026-02-02 14:20:55,[104390|0]
280,2026-02-02 14:20:55,[104410|0]
281,2026-02-02 14:20:55,[104458|0]
282,2026-02-02 14:20:55,[104523|0]
283,2026-02-02 14:20:56,[104527|0]
284,2026-02-02 14:20:56,[104534|0]
285,2026-02-02 14:20:56,[104558|0]
286,2026-02-02 14:20:56,[104522|0]
287,2026-02-02 14:20:56,[104504|0]
288,2026-02-02 14:20:56,[104504|0]
289,2026-02-02 14:20:56,[104351|0]
290,2026-02-02 14:20:56,[104191|0]
291,2026-02-02 14:20:56,[104182|0]
292,2026-02-02 14:20:56,[104232|0]
293,2026-02-02 14:20:56,[104291|0]
294,2026-02-02 14:20:56,[104333|0]
295,2026-02-02 14:20:56,[104387|0]
296,2026-02-02 14:20:56,[104341|0]
297,2026-02-02 14:20:56,[104308|0]
298,2026-02-02 14:20:56,[104320|0]
299,2026-02-02 14:20:56,[104298|0]
300,2026-02-02 14:20:56,[104338|0]
301,2026-02-02 14:20:56,[104389|0]
302,2026-02-02 14:20:56,[104415|0]
303,2026-02-02 14:20:56,[104456|0]
304,2026-02-02 14:20:56,[104473|0]
305,2026-02-02 14:20:56,[104456|0]
306,2026-02-02 14:20:56,[104478|0]
307,2026-02-02 14:20:56,[104495|0]
308,2026-02-02 14:20:56,[104505|0]
309,2026-02-02 14:20:57,[104467|0]
310,2026-02-02 14:20:57,[104263|0]
311,2026-02-02 14:20:57,[104089|0]
312,2026-02-02 14:20:57,[104112|0]
313,2026-02-02 14:20:57,[104207|0]
314,2026-02-02 14:20:57,[104273|0]
315,2026-02-02 14:20:57,[104299|0]
316,2026-02-02 14:20:57,[104349|0]
317,2026-02-02 14:20:57,[104302|0]
318,2026-02-02 14:20:57,[104335|0]
319,2026-02-02 14:20:57,[104400|0]
320,2026-02-02 14:20:57,[104428|0]
321,2026-02-02 14:20:57,[104437|0]
322,2026-02-02 14:20:57,[104493|0]
323,2026-02-02 14:20:57,[104443|0]
324,2026-02-02 14:20:57,[104460|0]
325,2026-02-02 14:20:57,[104459|0]
326,2026-02-02 14:20:57,[104455|0]
327,2026-02-02 14:20:57,[104477|0]
328,2026-02-02 14:20:57,[104331|0]
329,2026-02-02 14:20:57,[104135|0]
330,2026-02-02 14:20:57,[104136|0]
331,2026-02-02 14:20:57,[104201|0]
332,2026-02-02 14:20:57,[104254|0]
333,2026-02-02 14:20:57,[104292|0]
334,2026-02-02 14:20:58,[104327|0]
335,2026-02-02 14:20:58,[104272|0]
336,2026-02-02 14:20:58,[104286|0]
337,2026-02-02 14:20:58,[104286|0]
338,2026-02-02 14:20:58,[104280|0]
339,2026-02-02 14:20:58,[104320|0]
340,2026-02-02 14:20:58,[104377|0]
341,2026-02-02 14:20:58,[104413|0]
342,2026-02-02 14:20:58,[104452|0]
343,2026-02-02 14:20:58,[104451|0]
344,2026-02-02 14:20:58,[104499|0]
345,2026-02-02 14:20:58,[104505|0]
346,2026-02-02 14:20:58,[104550|0]
347,2026-02-02 14:20:58,[104456|0]
348,2026-02-02 14:20:58,[104253|0]
349,2026-02-02 14:20:58,[104126|0]
350,2026-02-02 14:20:58,[104162|0]
351,2026-02-02 14:20:58,[104214|0]
352,2026-02-02 14:20:58,[104223|0]
353,2026-02-02 14:20:58,[104242|0]
354,2026-02-02 14:20:58,[104260|0]
355,2026-02-02 14:20:58,[104273|0]
356,2026-02-02 14:20:58,[104268|0]
357,2026-02-02 14:20:58,[104260|0]
358,2026-02-02 14:20:59,[104320|0]
359,2026-02-02 14:20:59,[104330|0]
360,2026-02-02 14:20:59,[104335|0]
361,2026-02-02 14:20:59,[104359|0]
362,2026-02-02 14:20:59,[104367|0]
363,2026-02-02 14:20:59,[104350|0]
364,2026-02-02 14:20:59,[104371|0]
365,2026-02-02 14:20:59,[104350|0]
366,2026-02-02 14:20:59,[104344|0]
367,2026-02-02 14:20:59,[104236|0]
368,2026-02-02 14:20:59,[104046|0]
369,2026-02-02 14:20:59,[104003|0]
370,2026-02-02 14:20:59,[104034|0]
371,2026-02-02 14:20:59,[104099|0]
372,2026-02-02 14:20:59,[104111|0]
373,2026-02-02 14:20:59,[104106|0]
374,2026-02-02 14:20:59,[104134|0]
375,2026-02-02 14:20:59,[104127|0]
376,2026-02-02 14:20:59,[104160|0]
377,2026-02-02 14:20:59,[104222|0]
378,2026-02-02 14:20:59,[104265|0]
379,2026-02-02 14:20:59,[104314|0]
380,2026-02-02 14:20:59,[104345|0]
381,2026-02-02 14:20:59,[104344|0]
382,2026-02-02 14:20:59,[104313|0]
383,2026-02-02 14:20:59,[104325|0]
384,2026-02-02 14:21:00,[104317|0]
385,2026-02-02 14:21:00,[104317|0]
386,2026-02-02 14:21:00,[104338|0]
387,2026-02-02 14:21:00,[104348|0]
388,2026-02-02 14:21:00,[104263|0]
389,2026-02-02 14:21:00,[104070|0]
390,2026-02-02 14:21:00,[104025|0]
391,2026-02-02 14:21:00,[104026|0]
392,2026-02-02 14:21:00,[104045|0]
393,2026-02-02 14:21:00,[104101|0]
394,2026-02-02 14:21:00,[104111|0]
395,2026-02-02 14:21:00,[104080|0]
396,2026-02-02 14:21:00,[104090|0]
397,2026-02-02 14:21:00,[104096|0]
398,2026-02-02 14:21:00,[104102|0]
399,2026-02-02 14:21:00,[104120|0]
400,2026-02-02 14:21:00,[104129|0]
401,2026-02-02 14:21:00,[104138|0]
402,2026-02-02 14:21:00,[104138|0]
403,2026-02-02 14:21:00,[104145|0]
404,2026-02-02 14:21:00,[104189|0]
405,2026-02-02 14:21:00,[104210|0]
406,2026-02-02 14:21:00,[104153|0]
407,2026-02-02 14:21:00,[104129|0]
408,2026-02-02 14:21:00,[104196|0]
409,2026-02-02 14:21:01,[104268|0]
410,2026-02-02 14:21:01,[104269|0]
411,2026-02-02 14:21:01,[104200|0]
412,2026-02-02 14:21:01,[104011|0]
413,2026-02-02 14:21:01,[103893|0]
414,2026-02-02 14:21:01,[103925|0]
415,2026-02-02 14:21:01,[103956|0]
416,2026-02-02 14:21:01,[103955|0]
417,2026-02-02 14:21:01,[103988|0]
418,2026-02-02 14:21:01,[103998|0]
419,2026-02-02 14:21:01,[103931|0]
420,2026-02-02 14:21:01,[103953|0]
421,2026-02-02 14:21:01,[103985|0]
422,2026-02-02 14:21:01,[103988|0]
423,2026-02-02 14:21:01,[104021|0]
424,2026-02-02 14:21:01,[104081|0]
425,2026-02-02 14:21:01,[104048|0]
426,2026-02-02 14:21:01,[104080|0]
427,2026-02-02 14:21:01,[104122|0]
428,2026-02-02 14:21:01,[104119|0]
429,2026-02-02 14:21:01,[104122|0]
430,2026-02-02 14:21:01,[104157|0]
431,2026-02-02 14:21:01,[104138|0]
432,2026-02-02 14:21:01,[104152|0]
433,2026-02-02 14:21:02,[104200|0]
434,2026-02-02 14:21:02,[104205|0]
435,2026-02-02 14:21:02,[104039|0]
436,2026-02-02 14:21:02,[103887|0]
437,2026-02-02 14:21:02,[103820|0]
438,2026-02-02 14:21:02,[103820|0]
439,2026-02-02 14:21:02,[103870|0]
440,2026-02-02 14:21:02,[103895|0]
441,2026-02-02 14:21:02,[103873|0]
442,2026-02-02 14:21:02,[103892|0]
443,2026-02-02 14:21:02,[103902|0]
444,2026-02-02 14:21:02,[103891|0]
445,2026-02-02 14:21:02,[103897|0]
446,2026-02-02 14:21:02,[103957|0]
447,2026-02-02 14:21:02,[103974|0]
448,2026-02-02 14:21:02,[104035|0]
449,2026-02-02 14:21:02,[104076|0]
450,2026-02-02 14:21:02,[104075|0]
451,2026-02-02 14:21:02,[104077|0]
452,2026-02-02 14:21:02,[104123|0]
453,2026-02-02 14:21:02,[104108|0]
454,2026-02-02 14:21:02,[104082|0]
455,2026-02-02 14:21:02,[104101|0]
456,2026-02-02 14:21:02,[104138|0]
457,2026-02-02 14:21:02,[104147|0]
458,2026-02-02 14:21:02,[104201|0]
459,2026-02-02 14:21:03,[104018|0]
460,2026-02-02 14:21:03,[103839|0]
461,2026-02-02 14:21:03,[103820|0]
462,2026-02-02 14:21:03,[103871|0]
463,2026-02-02 14:21:03,[103880|0]
464,2026-02-02 14:21:03,[103961|0]
465,2026-02-02 14:21:03,[104000|0]
466,2026-02-02 14:21:03,[103951|0]
467,2026-02-02 14:21:03,[103934|0]
468,2026-02-02 14:21:03,[103971|0]
469,2026-02-02 14:21:03,[103971|0]
470,2026-02-02 14:21:03,[103989|0]
471,2026-02-02 14:21:03,[104066|0]
472,2026-02-02 14:21:03,[104108|0]
473,2026-02-02 14:21:03,[104050|0]
474,2026-02-02 14:21:03,[104045|0]
475,2026-02-02 14:21:03,[104116|0]
476,2026-02-02 14:21:03,[104140|0]
477,2026-02-02 14:21:03,[104142|0]
478,2026-02-02 14:21:03,[104172|0]
479,2026-02-02 14:21:03,[104212|0]
480,2026-02-02 14:21:03,[104111|0]
481,2026-02-02 14:21:03,[103919|0]
482,2026-02-02 14:21:03,[103886|0]
483,2026-02-02 14:21:03,[103870|0]
484,2026-02-02 14:21:04,[103857|0]
485,2026-02-02 14:21:04,[103906|0]
486,2026-02-02 14:21:04,[104011|0]
487,2026-02-02 14:21:04,[103986|0]
488,2026-02-02 14:21:04,[103962|0]
489,2026-02-02 14:21:04,[103977|0]
490,2026-02-02 14:21:04,[103983|0]
491,2026-02-02 14:21:04,[103992|0]
492,2026-02-02 14:21:04,[104044|0]
493,2026-02-02 14:21:04,[104085|0]
494,2026-02-02 14:21:04,[104090|0]
495,2026-02-02 14:21:04,[104104|0]
496,2026-02-02 14:21:04,[104138|0]
497,2026-02-02 14:21:04,[104155|0]
498,2026-02-02 14:21:04,[104156|0]
499,2026-02-02 14:21:04,[104138|0]
500,2026-02-02 14:21:04,[103963|0]
501,2026-02-02 14:21:04,[103846|0]
502,2026-02-02 14:21:04,[103841|0]
503,2026-02-02 14:21:04,[103918|0]
504,2026-02-02 14:21:04,[103966|0]
505,2026-02-02 14:21:04,[104021|0]
506,2026-02-02 14:21:04,[104062|0]
507,2026-02-02 14:21:04,[104031|0]
508,2026-02-02 14:21:05,[103953|0]
509,2026-02-02 14:21:05,[103991|0]
510,2026-02-02 14:21:05,[104076|0]
511,2026-02-02 14:21:05,[104067|0]
512,2026-02-02 14:21:05,[104077|0]
513,2026-02-02 14:21:05,[104077|0]
514,2026-02-02 14:21:05,[104124|0]
515,2026-02-02 14:21:05,[104136|0]
516,2026-02-02 14:21:05,[104139|0]
517,2026-02-02 14:21:05,[104176|0]
518,2026-02-02 14:21:05,[104205|0]
519,2026-02-02 14:21:05,[104213|0]
520,2026-02-02 14:21:05,[104247|0]
521,2026-02-02 14:21:05,[104199|0]
522,2026-02-02 14:21:05,[103925|0]
523,2026-02-02 14:21:05,[103805|0]
524,2026-02-02 14:21:05,[103823|0]
525,2026-02-02 14:21:05,[103840|0]
526,2026-02-02 14:21:05,[103859|0]
527,2026-02-02 14:21:05,[103888|0]
528,2026-02-02 14:21:05,[103916|0]
529,2026-02-02 14:21:05,[103874|0]
530,2026-02-02 14:21:05,[103902|0]
531,2026-02-02 14:21:05,[103920|0]
532,2026-02-02 14:21:05,[103917|0]
533,2026-02-02 14:21:05,[103934|0]
534,2026-02-02 14:21:06,[104016|0]
535,2026-02-02 14:21:06,[104049|0]
536,2026-02-02 14:21:06,[104089|0]
537,2026-02-02 14:21:06,[104094|0]
538,2026-02-02 14:21:06,[104108|0]
539,2026-02-02 14:21:06,[104109|0]
540,2026-02-02 14:21:06,[104158|0]
541,2026-02-02 14:21:06,[104197|0]
542,2026-02-02 14:21:06,[104191|0]
543,2026-02-02 14:21:06,[104202|0]
544,2026-02-02 14:21:06,[103924|0]
545,2026-02-02 14:21:06,[103729|0]
546,2026-02-02 14:21:06,[103769|0]
547,2026-02-02 14:21:06,[103819|0]
548,2026-02-02 14:21:06,[103867|0]
549,2026-02-02 14:21:06,[103910|0]
550,2026-02-02 14:21:06,[103928|0]
551,2026-02-02 14:21:06,[103895|0]
552,2026-02-02 14:21:06,[103924|0]
553,2026-02-02 14:21:06,[103951|0]
554,2026-02-02 14:21:06,[103976|0]
555,2026-02-02 14:21:06,[104016|0]
556,2026-02-02 14:21:06,[104073|0]
557,2026-02-02 14:21:06,[104074|0]
558,2026-02-02 14:21:06,[104105|0]
559,2026-02-02 14:21:07,[104112|0]
560,2026-02-02 14:21:07,[104144|0]
561,2026-02-02 14:21:07,[104159|0]
562,2026-02-02 14:21:07,[104150|0]
563,2026-02-02 14:21:07,[104183|0]
564,2026-02-02 14:21:07,[104240|0]
565,2026-02-02 14:21:07,[104232|0]
566,2026-02-02 14:21:07,[104106|0]
567,2026-02-02 14:21:07,[103817|0]
568,2026-02-02 14:21:07,[103743|0]
569,2026-02-02 14:21:07,[103784|0]
570,2026-02-02 14:21:07,[103894|0]
571,2026-02-02 14:21:07,[103926|0]
572,2026-02-02 14:21:07,[103956|0]
573,2026-02-02 14:21:07,[103982|0]
574,2026-02-02 14:21:07,[103950|0]
575,2026-02-02 14:21:07,[103910|0]
576,2026-02-02 14:21:07,[103960|0]
577,2026-02-02 14:21:07,[104025|0]
578,2026-02-02 14:21:07,[104044|0]
579,2026-02-02 14:21:07,[104065|0]
580,2026-02-02 14:21:07,[104097|0]
581,2026-02-02 14:21:07,[104101|0]
582,2026-02-02 14:21:07,[104118|0]
583,2026-02-02 14:21:07,[104122|0]
584,2026-02-02 14:21:07,[104136|0]
585,2026-02-02 14:21:08,[104117|0]
586,2026-02-02 14:21:08,[104141|0]
587,2026-02-02 14:21:08,[104171|0]
588,2026-02-02 14:21:08,[104104|0]
589,2026-02-02 14:21:08,[103810|0]
590,2026-02-02 14:21:08,[103740|0]
591,2026-02-02 14:21:08,[103777|0]
592,2026-02-02 14:21:08,[103806|0]
593,2026-02-02 14:21:08,[103889|0]
594,2026-02-02 14:21:08,[103975|0]
595,2026-02-02 14:21:08,[103996|0]
596,2026-02-02 14:21:08,[103928|0]
597,2026-02-02 14:21:08,[103889|0]
598,2026-02-02 14:21:08,[103905|0]
599,2026-02-02 14:21:08,[103935|0]
600,2026-02-02 14:21:08,[103948|0]
601,2026-02-02 14:21:08,[104010|0]
602,2026-02-02 14:21:08,[104047|0]
603,2026-02-02 14:21:08,[104036|0]
604,2026-02-02 14:21:08,[104059|0]
605,2026-02-02 14:21:08,[104074|0]
606,2026-02-02 14:21:08,[104084|0]
607,2026-02-02 14:21:08,[104082|0]
608,2026-02-02 14:21:08,[104142|0]
609,2026-02-02 14:21:09,[104166|0]
610,2026-02-02 14:21:09,[104004|0]
611,2026-02-02 14:21:09,[103756|0]
612,2026-02-02 14:21:09,[103724|0]
613,2026-02-02 14:21:09,[103774|0]
614,2026-02-02 14:21:09,[103869|0]
615,2026-02-02 14:21:09,[103928|0]
616,2026-02-02 14:21:09,[103940|0]
617,2026-02-02 14:21:09,[103983|0]
618,2026-02-02 14:21:09,[103961|0]
619,2026-02-02 14:21:09,[103911|0]
620,2026-02-02 14:21:09,[103959|0]
621,2026-02-02 14:21:09,[103999|0]
622,2026-02-02 14:21:09,[104021|0]
623,2026-02-02 14:21:09,[104048|0]
624,2026-02-02 14:21:09,[104079|0]
625,2026-02-02 14:21:09,[104086|0]
626,2026-02-02 14:21:09,[104087|0]
627,2026-02-02 14:21:09,[104087|0]
628,2026-02-02 14:21:09,[104110|0]
629,2026-02-02 14:21:09,[104088|0]
630,2026-02-02 14:21:09,[104110|0]
631,2026-02-02 14:21:09,[104122|0]
632,2026-02-02 14:21:09,[103908|0]
633,2026-02-02 14:21:09,[103752|0]
634,2026-02-02 14:21:10,[103785|0]
635,2026-02-02 14:21:10,[103837|0]
636,2026-02-02 14:21:10,[103940|0]
637,2026-02-02 14:21:10,[104001|0]
638,2026-02-02 14:21:10,[103998|0]
639,2026-02-02 14:21:10,[103960|0]
640,2026-02-02 14:21:10,[103921|0]
641,2026-02-02 14:21:10,[103903|0]
642,2026-02-02 14:21:10,[103964|0]
643,2026-02-02 14:21:10,[104042|0]
644,2026-02-02 14:21:10,[104034|0]
645,2026-02-02 14:21:10,[104036|0]
646,2026-02-02 14:21:10,[104083|0]
647,2026-02-02 14:21:10,[104063|0]
648,2026-02-02 14:21:10,[104101|0]
649,2026-02-02 14:21:10,[104160|0]
650,2026-02-02 14:21:10,[104203|0]
651,2026-02-02 14:21:10,[104205|0]
652,2026-02-02 14:21:10,[104104|0]
653,2026-02-02 14:21:10,[103809|0]
654,2026-02-02 14:21:10,[103766|0]
655,2026-02-02 14:21:10,[103830|0]
656,2026-02-02 14:21:10,[103892|0]
657,2026-02-02 14:21:10,[103962|0]
658,2026-02-02 14:21:11,[104011|0]
659,2026-02-02 14:21:11,[103961|0]
660,2026-02-02 14:21:11,[103955|0]
661,2026-02-02 14:21:11,[103950|0]
662,2026-02-02 14:21:11,[103963|0]
663,2026-02-02 14:21:11,[104011|0]
664,2026-02-02 14:21:11,[104056|0]
665,2026-02-02 14:21:11,[104057|0]
666,2026-02-02 14:21:11,[104079|0]
667,2026-02-02 14:21:11,[104104|0]
668,2026-02-02 14:21:11,[104110|0]
669,2026-02-02 14:21:11,[104119|0]
670,2026-02-02 14:21:11,[104137|0]
671,2026-02-02 14:21:11,[104135|0]
672,2026-02-02 14:21:11,[104091|0]
673,2026-02-02 14:21:11,[103829|0]
674,2026-02-02 14:21:11,[103764|0]
675,2026-02-02 14:21:11,[103797|0]
676,2026-02-02 14:21:11,[103853|0]
677,2026-02-02 14:21:11,[103897|0]
678,2026-02-02 14:21:11,[103943|0]
679,2026-02-02 14:21:11,[103924|0]
680,2026-02-02 14:21:11,[103910|0]
681,2026-02-02 14:21:11,[103918|0]
682,2026-02-02 14:21:11,[103894|0]
683,2026-02-02 14:21:11,[103909|0]
684,2026-02-02 14:21:12,[103957|0]
685,2026-02-02 14:21:12,[104008|0]
686,2026-02-02 14:21:12,[104017|0]
687,2026-02-02 14:21:12,[104036|0]
688,2026-02-02 14:21:12,[104059|0]
689,2026-02-02 14:21:12,[104053|0]
690,2026-02-02 14:21:12,[104095|0]
691,2026-02-02 14:21:12,[104112|0]
692,2026-02-02 14:21:12,[104022|0]
693,2026-02-02 14:21:12,[103771|0]
694,2026-02-02 14:21:12,[103676|0]
695,2026-02-02 14:21:12,[103664|0]
696,2026-02-02 14:21:12,[103768|0]
697,2026-02-02 14:21:12,[103826|0]
698,2026-02-02 14:21:12,[103838|0]
699,2026-02-02 14:21:12,[103856|0]
700,2026-02-02 14:21:12,[103828|0]
701,2026-02-02 14:21:12,[103783|0]
702,2026-02-02 14:21:12,[103788|0]
703,2026-02-02 14:21:12,[103834|0]
704,2026-02-02 14:21:12,[103892|0]
705,2026-02-02 14:21:12,[103916|0]
706,2026-02-02 14:21:12,[103938|0]
707,2026-02-02 14:21:12,[103965|0]
708,2026-02-02 14:21:12,[104024|0]
709,2026-02-02 14:21:13,[104048|0]
710,2026-02-02 14:21:13,[104071|0]
711,2026-02-02 14:21:13,[104096|0]
712,2026-02-02 14:21:13,[103931|0]
713,2026-02-02 14:21:13,[103684|0]
714,2026-02-02 14:21:13,[103686|0]
715,2026-02-02 14:21:13,[103735|0]
716,2026-02-02 14:21:13,[103788|0]
717,2026-02-02 14:21:13,[103818|0]
718,2026-02-02 14:21:13,[103868|0]
719,2026-02-02 14:21:13,[103844|0]
720,2026-02-02 14:21:13,[103778|0]
721,2026-02-02 14:21:13,[103724|0]
722,2026-02-02 14:21:13,[103806|0]
723,2026-02-02 14:21:13,[103856|0]
724,2026-02-02 14:21:13,[103888|0]
725,2026-02-02 14:21:13,[103941|0]
726,2026-02-02 14:21:13,[103980|0]
727,2026-02-02 14:21:13,[103984|0]
728,2026-02-02 14:21:13,[103959|0]
729,2026-02-02 14:21:13,[103946|0]
730,2026-02-02 14:21:13,[103887|0]
731,2026-02-02 14:21:13,[103704|0]
732,2026-02-02 14:21:13,[103590|0]
733,2026-02-02 14:21:13,[103578|0]
734,2026-02-02 14:21:13,[103638|0]
735,2026-02-02 14:21:14,[103743|0]
736,2026-02-02 14:21:14,[103774|0]
737,2026-02-02 14:21:14,[103757|0]
738,2026-02-02 14:21:14,[103749|0]
739,2026-02-02 14:21:14,[103749|0]
740,2026-02-02 14:21:14,[103724|0]
741,2026-02-02 14:21:14,[103664|0]
742,2026-02-02 14:21:14,[103719|0]
743,2026-02-02 14:21:14,[103755|0]
744,2026-02-02 14:21:14,[103736|0]
745,2026-02-02 14:21:14,[103761|0]
746,2026-02-02 14:21:14,[103854|0]
747,2026-02-02 14:21:14,[103809|0]
748,2026-02-02 14:21:14,[103824|0]
749,2026-02-02 14:21:14,[103888|0]
750,2026-02-02 14:21:14,[103929|0]
751,2026-02-02 14:21:14,[103788|0]
752,2026-02-02 14:21:14,[103635|0]
753,2026-02-02 14:21:14,[103612|0]
754,2026-02-02 14:21:14,[103649|0]
755,2026-02-02 14:21:14,[103665|0]
756,2026-02-02 14:21:14,[103770|0]
757,2026-02-02 14:21:14,[103810|0]
758,2026-02-02 14:21:14,[103771|0]
759,2026-02-02 14:21:15,[103726|0]
760,2026-02-02 14:21:15,[103706|0]
761,2026-02-02 14:21:15,[103736|0]
762,2026-02-02 14:21:15,[103812|0]
763,2026-02-02 14:21:15,[103836|0]
764,2026-02-02 14:21:15,[103886|0]
765,2026-02-02 14:21:15,[103908|0]
766,2026-02-02 14:21:15,[103870|0]
767,2026-02-02 14:21:15,[103871|0]
768,2026-02-02 14:21:15,[103922|0]
769,2026-02-02 14:21:15,[103952|0]
770,2026-02-02 14:21:15,[103950|0]
771,2026-02-02 14:21:15,[103772|0]
772,2026-02-02 14:21:15,[103567|0]
773,2026-02-02 14:21:15,[103522|0]
774,2026-02-02 14:21:15,[103644|0]
775,2026-02-02 14:21:15,[103658|0]
776,2026-02-02 14:21:15,[103662|0]
777,2026-02-02 14:21:15,[103692|0]
778,2026-02-02 14:21:15,[103654|0]
779,2026-02-02 14:21:15,[103626|0]
780,2026-02-02 14:21:15,[103685|0]
781,2026-02-02 14:21:15,[103708|0]
782,2026-02-02 14:21:15,[103716|0]
783,2026-02-02 14:21:15,[103752|0]
784,2026-02-02 14:21:16,[103762|0]
785,2026-02-02 14:21:16,[103747|0]
786,2026-02-02 14:21:16,[103794|0]
787,2026-02-02 14:21:16,[103829|0]
788,2026-02-02 14:21:16,[103828|0]
789,2026-02-02 14:21:16,[103835|0]
790,2026-02-02 14:21:16,[103859|0]
791,2026-02-02 14:21:16,[103820|0]
792,2026-02-02 14:21:16,[103642|0]
793,2026-02-02 14:21:16,[103529|0]
794,2026-02-02 14:21:16,[103566|0]
795,2026-02-02 14:21:16,[103611|0]
796,2026-02-02 14:21:16,[103655|0]
797,2026-02-02 14:21:16,[103647|0]
798,2026-02-02 14:21:16,[103691|0]
799,2026-02-02 14:21:16,[103657|0]
800,2026-02-02 14:21:16,[103624|0]
801,2026-02-02 14:21:16,[103649|0]
802,2026-02-02 14:21:16,[103713|0]
803,2026-02-02 14:21:16,[103717|0]
804,2026-02-02 14:21:16,[103763|0]
805,2026-02-02 14:21:16,[103775|0]
806,2026-02-02 14:21:16,[103832|0]
807,2026-02-02 14:21:16,[103842|0]
808,2026-02-02 14:21:17,[103854|0]
809,2026-02-02 14:21:17,[103871|0]
810,2026-02-02 14:21:17,[103874|0]
811,2026-02-02 14:21:17,[103903|0]
812,2026-02-02 14:21:17,[103932|0]
813,2026-02-02 14:21:17,[103914|0]
814,2026-02-02 14:21:17,[103652|0]
815,2026-02-02 14:21:17,[103520|0]
816,2026-02-02 14:21:17,[103550|0]
817,2026-02-02 14:21:17,[103617|0]
818,2026-02-02 14:21:17,[103672|0]
819,2026-02-02 14:21:17,[103692|0]
820,2026-02-02 14:21:17,[103675|0]
821,2026-02-02 14:21:17,[103653|0]
822,2026-02-02 14:21:17,[103658|0]
823,2026-02-02 14:21:17,[103675|0]
824,2026-02-02 14:21:17,[103719|0]
825,2026-02-02 14:21:17,[103748|0]
826,2026-02-02 14:21:17,[103769|0]
827,2026-02-02 14:21:17,[103782|0]
828,2026-02-02 14:21:17,[103805|0]
829,2026-02-02 14:21:17,[103809|0]
830,2026-02-02 14:21:17,[103869|0]
831,2026-02-02 14:21:17,[103883|0]
832,2026-02-02 14:21:17,[103895|0]
833,2026-02-02 14:21:17,[103916|0]
834,2026-02-02 14:21:18,[103950|0]
835,2026-02-02 14:21:18,[103951|0]
836,2026-02-02 14:21:18,[103721|0]
837,2026-02-02 14:21:18,[103605|0]
838,2026-02-02 14:21:18,[103617|0]
839,2026-02-02 14:21:18,[103679|0]
840,2026-02-02 14:21:18,[103740|0]
841,2026-02-02 14:21:18,[103799|0]
842,2026-02-02 14:21:18,[103817|0]
843,2026-02-02 14:21:18,[103792|0]
844,2026-02-02 14:21:18,[103743|0]
845,2026-02-02 14:21:18,[103782|0]
846,2026-02-02 14:21:18,[103880|0]
847,2026-02-02 14:21:18,[103935|0]
848,2026-02-02 14:21:18,[103974|0]
849,2026-02-02 14:21:18,[104007|0]
850,2026-02-02 14:21:18,[104002|0]
851,2026-02-02 14:21:18,[104035|0]
852,2026-02-02 14:21:18,[104035|0]
853,2026-02-02 14:21:18,[104054|0]
854,2026-02-02 14:21:18,[104082|0]
855,2026-02-02 14:21:18,[104125|0]
856,2026-02-02 14:21:18,[104121|0]
857,2026-02-02 14:21:18,[104129|0]
858,2026-02-02 14:21:18,[104113|0]
859,2026-02-02 14:21:19,[103872|0]
860,2026-02-02 14:21:19,[103675|0]
861,2026-02-02 14:21:19,[103670|0]
862,2026-02-02 14:21:19,[103701|0]
863,2026-02-02 14:21:19,[103674|0]
864,2026-02-02 14:21:19,[103747|0]
865,2026-02-02 14:21:19,[103793|0]
866,2026-02-02 14:21:19,[103739|0]
867,2026-02-02 14:21:19,[103719|0]
868,2026-02-02 14:21:19,[103724|0]
869,2026-02-02 14:21:19,[103715|0]
870,2026-02-02 14:21:19,[103803|0]
871,2026-02-02 14:21:19,[103832|0]
872,2026-02-02 14:21:19,[103832|0]
873,2026-02-02 14:21:19,[103826|0]
874,2026-02-02 14:21:19,[103869|0]
875,2026-02-02 14:21:19,[103853|0]
876,2026-02-02 14:21:19,[103885|0]
877,2026-02-02 14:21:19,[103927|0]
878,2026-02-02 14:21:19,[103963|0]
879,2026-02-02 14:21:19,[103826|0]
880,2026-02-02 14:21:19,[103612|0]
881,2026-02-02 14:21:19,[103540|0]
882,2026-02-02 14:21:19,[103584|0]
883,2026-02-02 14:21:19,[103637|0]
884,2026-02-02 14:21:19,[103665|0]
885,2026-02-02 14:21:20,[103696|0]
886,2026-02-02 14:21:20,[103704|0]
887,2026-02-02 14:21:20,[103672|0]
888,2026-02-02 14:21:20,[103693|0]
889,2026-02-02 14:21:20,[103683|0]
890,2026-02-02 14:21:20,[103719|0]
891,2026-02-02 14:21:20,[103775|0]
892,2026-02-02 14:21:20,[103825|0]
893,2026-02-02 14:21:20,[103841|0]
894,2026-02-02 14:21:20,[103884|0]
895,2026-02-02 14:21:20,[103889|0]
896,2026-02-02 14:21:20,[103910|0]
897,2026-02-02 14:21:20,[103952|0]
898,2026-02-02 14:21:20,[103975|0]
899,2026-02-02 14:21:20,[103946|0]
900,2026-02-02 14:21:20,[103756|0]
901,2026-02-02 14:21:20,[103597|0]
902,2026-02-02 14:21:20,[103580|0]
903,2026-02-02 14:21:20,[103641|0]
904,2026-02-02 14:21:20,[103718|0]
905,2026-02-02 14:21:20,[103779|0]
906,2026-02-02 14:21:20,[103798|0]
907,2026-02-02 14:21:20,[103729|0]
908,2026-02-02 14:21:20,[103706|0]
909,2026-02-02 14:21:21,[103698|0]
910,2026-02-02 14:21:21,[103740|0]
911,2026-02-02 14:21:21,[103788|0]
912,2026-02-02 14:21:21,[103880|0]
913,2026-02-02 14:21:21,[103930|0]
914,2026-02-02 14:21:21,[103991|0]
915,2026-02-02 14:21:21,[104034|0]
916,2026-02-02 14:21:21,[104038|0]
917,2026-02-02 14:21:21,[104039|0]
918,2026-02-02 14:21:21,[104080|0]
919,2026-02-02 14:21:21,[104108|0]
920,2026-02-02 14:21:21,[103921|0]
921,2026-02-02 14:21:21,[103692|0]
922,2026-02-02 14:21:21,[103676|0]
923,2026-02-02 14:21:21,[103726|0]
924,2026-02-02 14:21:21,[103810|0]
925,2026-02-02 14:21:21,[103889|0]
926,2026-02-02 14:21:21,[103956|0]
927,2026-02-02 14:21:21,[103915|0]
928,2026-02-02 14:21:21,[103835|0]
929,2026-02-02 14:21:21,[103824|0]
930,2026-02-02 14:21:21,[103892|0]
931,2026-02-02 14:21:21,[103945|0]
932,2026-02-02 14:21:21,[103977|0]
933,2026-02-02 14:21:21,[104017|0]
934,2026-02-02 14:21:22,[104052|0]
935,2026-02-02 14:21:22,[104039|0]
936,2026-02-02 14:21:22,[104041|0]
937,2026-02-02 14:21:22,[104072|0]
938,2026-02-02 14:21:22,[104090|0]
939,2026-02-02 14:21:22,[103876|0]
940,2026-02-02 14:21:22,[103634|0]
941,2026-02-02 14:21:22,[103623|0]
942,2026-02-02 14:21:22,[103653|0]
943,2026-02-02 14:21:22,[103762|0]
944,2026-02-02 14:21:22,[103836|0]
945,2026-02-02 14:21:22,[103840|0]
946,2026-02-02 14:21:22,[103802|0]
947,2026-02-02 14:21:22,[103783|0]
948,2026-02-02 14:21:22,[103769|0]
949,2026-02-02 14:21:22,[103816|0]
950,2026-02-02 14:21:22,[103883|0]
951,2026-02-02 14:21:22,[103908|0]
952,2026-02-02 14:21:22,[103934|0]
953,2026-02-02 14:21:22,[103983|0]
954,2026-02-02 14:21:22,[103996|0]
955,2026-02-02 14:21:22,[103998|0]
956,2026-02-02 14:21:22,[104016|0]
957,2026-02-02 14:21:22,[104041|0]
958,2026-02-02 14:21:23,[103852|0]
959,2026-02-02 14:21:23,[103604|0]
960,2026-02-02 14:21:23,[103577|0]
961,2026-02-02 14:21:23,[103641|0]
962,2026-02-02 14:21:23,[103693|0]
963,2026-02-02 14:21:23,[103745|0]
964,2026-02-02 14:21:23,[103745|0]
965,2026-02-02 14:21:23,[103772|0]
966,2026-02-02 14:21:23,[103744|0]
967,2026-02-02 14:21:23,[103701|0]
968,2026-02-02 14:21:23,[103697|0]
969,2026-02-02 14:21:23,[103737|0]
970,2026-02-02 14:21:23,[103816|0]
971,2026-02-02 14:21:23,[103851|0]
972,2026-02-02 14:21:23,[103883|0]
973,2026-02-02 14:21:23,[103910|0]
974,2026-02-02 14:21:23,[103919|0]
975,2026-02-02 14:21:23,[103933|0]
976,2026-02-02 14:21:23,[103944|0]
977,2026-02-02 14:21:23,[103942|0]
978,2026-02-02 14:21:23,[103803|0]
979,2026-02-02 14:21:23,[103570|0]
980,2026-02-02 14:21:23,[103552|0]
981,2026-02-02 14:21:23,[103584|0]
982,2026-02-02 14:21:23,[103626|0]
983,2026-02-02 14:21:23,[103697|0]
984,2026-02-02 14:21:24,[103743|0]
985,2026-02-02 14:21:24,[103671|0]
986,2026-02-02 14:21:24,[103662|0]
987,2026-02-02 14:21:24,[103658|0]
988,2026-02-02 14:21:24,[103683|0]
989,2026-02-02 14:21:24,[103714|0]
990,2026-02-02 14:21:24,[103765|0]
991,2026-02-02 14:21:24,[103792|0]
992,2026-02-02 14:21:24,[103808|0]
993,2026-02-02 14:21:24,[103792|0]
994,2026-02-02 14:21:24,[103825|0]
995,2026-02-02 14:21:24,[103811|0]
996,2026-02-02 14:21:24,[103851|0]
997,2026-02-02 14:21:24,[103834|0]
998,2026-02-02 14:21:24,[103606|0]
999,2026-02-02 14:21:24,[103486|0]
1000,2026-02-02 14:21:24,[103509|0]
1001,2026-02-02 14:21:24,[103548|0]
1002,2026-02-02 14:21:24,[103598|0]
1003,2026-02-02 14:21:24,[103658|0]
1004,2026-02-02 14:21:24,[103649|0]
1005,2026-02-02 14:21:24,[103601|0]
1006,2026-02-02 14:21:24,[103588|0]
1007,2026-02-02 14:21:24,[103585|0]
1008,2026-02-02 14:21:24,[103628|0]
1009,2026-02-02 14:21:25,[103672|0]
1010,2026-02-02 14:21:25,[103712|0]
1011,2026-02-02 14:21:25,[103754|0]
1012,2026-02-02 14:21:25,[103786|0]
1013,2026-02-02 14:21:25,[103765|0]
1014,2026-02-02 14:21:25,[103798|0]
1015,2026-02-02 14:21:25,[103856|0]
1016,2026-02-02 14:21:25,[103877|0]
1017,2026-02-02 14:21:25,[103855|0]
1018,2026-02-02 14:21:25,[103642|0]
1019,2026-02-02 14:21:25,[103446|0]
1020,2026-02-02 14:21:25,[103473|0]
1021,2026-02-02 14:21:25,[103534|0]
1022,2026-02-02 14:21:25,[103580|0]
1023,2026-02-02 14:21:25,[103646|0]
1024,2026-02-02 14:21:25,[103648|0]
1025,2026-02-02 14:21:25,[103565|0]
1026,2026-02-02 14:21:25,[103577|0]
1027,2026-02-02 14:21:25,[103620|0]
1028,2026-02-02 14:21:25,[103679|0]
1029,2026-02-02 14:21:25,[103682|0]
1030,2026-02-02 14:21:25,[103748|0]
1031,2026-02-02 14:21:25,[103770|0]
1032,2026-02-02 14:21:25,[103776|0]
1033,2026-02-02 14:21:26,[103793|0]
1034,2026-02-02 14:21:26,[103810|0]
1035,2026-02-02 14:21:26,[103812|0]
1036,2026-02-02 14:21:26,[103821|0]
1037,2026-02-02 14:21:26,[103823|0]
1038,2026-02-02 14:21:26,[103661|0]
1039,2026-02-02 14:21:26,[103473|0]
1040,2026-02-02 14:21:26,[103452|0]
1041,2026-02-02 14:21:26,[103488|0]
1042,2026-02-02 14:21:26,[103499|0]
1043,2026-02-02 14:21:26,[103548|0]
1044,2026-02-02 14:21:26,[103613|0]
1045,2026-02-02 14:21:26,[103555|0]
1046,2026-02-02 14:21:26,[103536|0]
1047,2026-02-02 14:21:26,[103556|0]
1048,2026-02-02 14:21:26,[103542|0]
1049,2026-02-02 14:21:26,[103553|0]
1050,2026-02-02 14:21:26,[103631|0]
1051,2026-02-02 14:21:26,[103656|0]
1052,2026-02-02 14:21:26,[103687|0]
1053,2026-02-02 14:21:26,[103724|0]
1054,2026-02-02 14:21:26,[103715|0]
1055,2026-02-02 14:21:26,[103714|0]
1056,2026-02-02 14:21:26,[103805|0]
1057,2026-02-02 14:21:26,[103831|0]
1058,2026-02-02 14:21:26,[103668|0]
1059,2026-02-02 14:21:27,[103464|0]
1060,2026-02-02 14:21:27,[103433|0]
1061,2026-02-02 14:21:27,[103458|0]
1062,2026-02-02 14:21:27,[103534|0]
1063,2026-02-02 14:21:27,[103588|0]
1064,2026-02-02 14:21:27,[103614|0]
1065,2026-02-02 14:21:27,[103586|0]
1066,2026-02-02 14:21:27,[103544|0]
1067,2026-02-02 14:21:27,[103536|0]
1068,2026-02-02 14:21:27,[103576|0]
1069,2026-02-02 14:21:27,[103600|0]
1070,2026-02-02 14:21:27,[103654|0]
1071,2026-02-02 14:21:27,[103696|0]
1072,2026-02-02 14:21:27,[103677|0]
1073,2026-02-02 14:21:27,[103715|0]
1074,2026-02-02 14:21:27,[103755|0]
1075,2026-02-02 14:21:27,[103762|0]
1076,2026-02-02 14:21:27,[103784|0]
1077,2026-02-02 14:21:27,[103819|0]
1078,2026-02-02 14:21:27,[103819|0]
1079,2026-02-02 14:21:27,[103725|0]
1080,2026-02-02 14:21:27,[103465|0]
1081,2026-02-02 14:21:27,[103408|0]
1082,2026-02-02 14:21:27,[103422|0]
1083,2026-02-02 14:21:27,[103461|0]
1084,2026-02-02 14:21:28,[103525|0]
1085,2026-02-02 14:21:28,[103547|0]
1086,2026-02-02 14:21:28,[103529|0]
1087,2026-02-02 14:21:28,[103493|0]
1088,2026-02-02 14:21:28,[103491|0]
1089,2026-02-02 14:21:28,[103541|0]
1090,2026-02-02 14:21:28,[103543|0]
1091,2026-02-02 14:21:28,[103562|0]
1092,2026-02-02 14:21:28,[103638|0]
1093,2026-02-02 14:21:28,[103636|0]
1094,2026-02-02 14:21:28,[103662|0]
1095,2026-02-02 14:21:28,[103672|0]
1096,2026-02-02 14:21:28,[103662|0]
1097,2026-02-02 14:21:28,[103650|0]
1098,2026-02-02 14:21:28,[103719|0]
1099,2026-02-02 14:21:28,[103748|0]
1100,2026-02-02 14:21:28,[103579|0]
1101,2026-02-02 14:21:28,[103388|0]
1102,2026-02-02 14:21:28,[103351|0]
1103,2026-02-02 14:21:28,[103344|0]
1104,2026-02-02 14:21:28,[103413|0]
1105,2026-02-02 14:21:28,[103415|0]
1106,2026-02-02 14:21:28,[103378|0]
1107,2026-02-02 14:21:28,[103373|0]
1108,2026-02-02 14:21:29,[103377|0]
1109,2026-02-02 14:21:29,[103351|0]
1110,2026-02-02 14:21:29,[103425|0]
1111,2026-02-02 14:21:29,[103446|0]
1112,2026-02-02 14:21:29,[103450|0]
1113,2026-02-02 14:21:29,[103490|0]
1114,2026-02-02 14:21:29,[103519|0]
1115,2026-02-02 14:21:29,[103498|0]
1116,2026-02-02 14:21:29,[103555|0]
1117,2026-02-02 14:21:29,[103578|0]
1118,2026-02-02 14:21:29,[103586|0]
1119,2026-02-02 14:21:29,[103638|0]
1120,2026-02-02 14:21:29,[103673|0]
1121,2026-02-02 14:21:29,[103460|0]
1122,2026-02-02 14:21:29,[103324|0]
1123,2026-02-02 14:21:29,[103312|0]
1124,2026-02-02 14:21:29,[103321|0]
1125,2026-02-02 14:21:29,[103334|0]
1126,2026-02-02 14:21:29,[103358|0]
1127,2026-02-02 14:21:29,[103345|0]
1128,2026-02-02 14:21:29,[103353|0]
1129,2026-02-02 14:21:29,[103346|0]
1130,2026-02-02 14:21:29,[103385|0]
1131,2026-02-02 14:21:29,[103414|0]
1132,2026-02-02 14:21:29,[103450|0]
1133,2026-02-02 14:21:29,[103459|0]
1134,2026-02-02 14:21:30,[103509|0]
1135,2026-02-02 14:21:30,[103516|0]
1136,2026-02-02 14:21:30,[103528|0]
1137,2026-02-02 14:21:30,[103547|0]
1138,2026-02-02 14:21:30,[103570|0]
1139,2026-02-02 14:21:30,[103551|0]
1140,2026-02-02 14:21:30,[103606|0]
1141,2026-02-02 14:21:30,[103542|0]
1142,2026-02-02 14:21:30,[103346|0]
1143,2026-02-02 14:21:30,[103262|0]
1144,2026-02-02 14:21:30,[103258|0]
1145,2026-02-02 14:21:30,[103287|0]
1146,2026-02-02 14:21:30,[103346|0]
1147,2026-02-02 14:21:30,[103369|0]
1148,2026-02-02 14:21:30,[103349|0]
1149,2026-02-02 14:21:30,[103328|0]
1150,2026-02-02 14:21:30,[103329|0]
1151,2026-02-02 14:21:30,[103327|0]
1152,2026-02-02 14:21:30,[103396|0]
1153,2026-02-02 14:21:30,[103425|0]
1154,2026-02-02 14:21:30,[103459|0]
1155,2026-02-02 14:21:30,[103484|0]
1156,2026-02-02 14:21:30,[103497|0]
1157,2026-02-02 14:21:30,[103504|0]
1158,2026-02-02 14:21:30,[103553|0]
1159,2026-02-02 14:21:31,[103539|0]
1160,2026-02-02 14:21:31,[103524|0]
1161,2026-02-02 14:21:31,[103558|0]
1162,2026-02-02 14:21:31,[103385|0]
1163,2026-02-02 14:21:31,[103219|0]
1164,2026-02-02 14:21:31,[103213|0]
1165,2026-02-02 14:21:31,[103252|0]
1166,2026-02-02 14:21:31,[103291|0]
1167,2026-02-02 14:21:31,[103311|0]
1168,2026-02-02 14:21:31,[103334|0]
1169,2026-02-02 14:21:31,[103301|0]
1170,2026-02-02 14:21:31,[103292|0]
1171,2026-02-02 14:21:31,[103330|0]
1172,2026-02-02 14:21:31,[103362|0]
1173,2026-02-02 14:21:31,[103362|0]
1174,2026-02-02 14:21:31,[103358|0]
1175,2026-02-02 14:21:31,[103386|0]
1176,2026-02-02 14:21:31,[103403|0]
1177,2026-02-02 14:21:31,[103419|0]
1178,2026-02-02 14:21:31,[103424|0]
1179,2026-02-02 14:21:31,[103439|0]
1180,2026-02-02 14:21:31,[103443|0]
1181,2026-02-02 14:21:31,[103483|0]
1182,2026-02-02 14:21:31,[103479|0]
1183,2026-02-02 14:21:32,[103281|0]
1184,2026-02-02 14:21:32,[103187|0]
1185,2026-02-02 14:21:32,[103170|0]
1186,2026-02-02 14:21:32,[103194|0]
1187,2026-02-02 14:21:32,[103222|0]
1188,2026-02-02 14:21:32,[103253|0]
1189,2026-02-02 14:21:32,[103253|0]
1190,2026-02-02 14:21:32,[103239|0]
1191,2026-02-02 14:21:32,[103229|0]
1192,2026-02-02 14:21:32,[103229|0]
1193,2026-02-02 14:21:32,[103221|0]
1194,2026-02-02 14:21:32,[103243|0]
1195,2026-02-02 14:21:32,[103283|0]
1196,2026-02-02 14:21:32,[103307|0]
1197,2026-02-02 14:21:32,[103310|0]
1198,2026-02-02 14:21:32,[103342|0]
1199,2026-02-02 14:21:32,[103335|0]
1200,2026-02-02 14:21:32,[103345|0]
1201,2026-02-02 14:21:32,[103394|0]
1202,2026-02-02 14:21:32,[103440|0]
1203,2026-02-02 14:21:32,[103446|0]
1204,2026-02-02 14:21:32,[103356|0]
1205,2026-02-02 14:21:32,[103174|0]
1206,2026-02-02 14:21:32,[103110|0]
1207,2026-02-02 14:21:32,[103131|0]
1208,2026-02-02 14:21:32,[103181|0]
1209,2026-02-02 14:21:33,[103227|0]
1210,2026-02-02 14:21:33,[103253|0]
1211,2026-02-02 14:21:33,[103221|0]
1212,2026-02-02 14:21:33,[103199|0]
1213,2026-02-02 14:21:33,[103160|0]
1214,2026-02-02 14:21:33,[103173|0]
1215,2026-02-02 14:21:33,[103212|0]
1216,2026-02-02 14:21:33,[103243|0]
1217,2026-02-02 14:21:33,[103230|0]
1218,2026-02-02 14:21:33,[103299|0]
1219,2026-02-02 14:21:33,[103319|0]
1220,2026-02-02 14:21:33,[103293|0]
1221,2026-02-02 14:21:33,[103315|0]
1222,2026-02-02 14:21:33,[103364|0]
1223,2026-02-02 14:21:33,[103327|0]
1224,2026-02-02 14:21:33,[103366|0]
1225,2026-02-02 14:21:33,[103328|0]
1226,2026-02-02 14:21:33,[103112|0]
1227,2026-02-02 14:21:33,[103009|0]
1228,2026-02-02 14:21:33,[103033|0]
1229,2026-02-02 14:21:33,[103041|0]
1230,2026-02-02 14:21:33,[103054|0]
1231,2026-02-02 14:21:33,[103056|0]
1232,2026-02-02 14:21:33,[103068|0]
1233,2026-02-02 14:21:33,[103055|0]
1234,2026-02-02 14:21:34,[103045|0]
1235,2026-02-02 14:21:34,[103057|0]
1236,2026-02-02 14:21:34,[103116|0]
1237,2026-02-02 14:21:34,[103136|0]
1238,2026-02-02 14:21:34,[103155|0]
1239,2026-02-02 14:21:34,[103196|0]
1240,2026-02-02 14:21:34,[103218|0]
1241,2026-02-02 14:21:34,[103181|0]
1242,2026-02-02 14:21:34,[103224|0]
1243,2026-02-02 14:21:34,[103275|0]
1244,2026-02-02 14:21:34,[103267|0]
1245,2026-02-02 14:21:34,[103327|0]
1246,2026-02-02 14:21:34,[103371|0]
1247,2026-02-02 14:21:34,[103158|0]
1248,2026-02-02 14:21:34,[103022|0]
1249,2026-02-02 14:21:34,[102997|0]
1250,2026-02-02 14:21:34,[103016|0]
1251,2026-02-02 14:21:34,[103058|0]
1252,2026-02-02 14:21:34,[103102|0]
1253,2026-02-02 14:21:34,[103122|0]
1254,2026-02-02 14:21:34,[103122|0]
1255,2026-02-02 14:21:34,[103077|0]
1256,2026-02-02 14:21:34,[103126|0]
1257,2026-02-02 14:21:34,[103161|0]
1258,2026-02-02 14:21:35,[103178|0]
1259,2026-02-02 14:21:35,[103208|0]
1260,2026-02-02 14:21:35,[103289|0]
1261,2026-02-02 14:21:35,[103324|0]
1262,2026-02-02 14:21:35,[103321|0]
1263,2026-02-02 14:21:35,[103335|0]
1264,2026-02-02 14:21:35,[103383|0]
1265,2026-02-02 14:21:35,[103375|0]
1266,2026-02-02 14:21:35,[103433|0]
1267,2026-02-02 14:21:35,[103433|0]
1268,2026-02-02 14:21:35,[103199|0]
1269,2026-02-02 14:21:35,[103058|0]
1270,2026-02-02 14:21:35,[103040|0]
1271,2026-02-02 14:21:35,[103081|0]
1272,2026-02-02 14:21:35,[103164|0]
1273,2026-02-02 14:21:35,[103218|0]
1274,2026-02-02 14:21:35,[103205|0]
1275,2026-02-02 14:21:35,[103194|0]
1276,2026-02-02 14:21:35,[103147|0]
1277,2026-02-02 14:21:35,[103124|0]
1278,2026-02-02 14:21:35,[103181|0]
1279,2026-02-02 14:21:35,[103258|0]
1280,2026-02-02 14:21:35,[103281|0]
1281,2026-02-02 14:21:35,[103275|0]
1282,2026-02-02 14:21:35,[103327|0]
1283,2026-02-02 14:21:35,[103340|0]
1284,2026-02-02 14:21:36,[103315|0]
1285,2026-02-02 14:21:36,[103385|0]
1286,2026-02-02 14:21:36,[103408|0]
1287,2026-02-02 14:21:36,[103406|0]
1288,2026-02-02 14:21:36,[103388|0]
1289,2026-02-02 14:21:36,[103159|0]
1290,2026-02-02 14:21:36,[103034|0]
1291,2026-02-02 14:21:36,[103014|0]
1292,2026-02-02 14:21:36,[103074|0]
1293,2026-02-02 14:21:36,[103155|0]
1294,2026-02-02 14:21:36,[103147|0]
1295,2026-02-02 14:21:36,[103170|0]
1296,2026-02-02 14:21:36,[103175|0]
1297,2026-02-02 14:21:36,[103157|0]
1298,2026-02-02 14:21:36,[103155|0]
1299,2026-02-02 14:21:36,[103219|0]
1300,2026-02-02 14:21:36,[103292|0]
1301,2026-02-02 14:21:36,[103334|0]
1302,2026-02-02 14:21:36,[103376|0]
1303,2026-02-02 14:21:36,[103439|0]
1304,2026-02-02 14:21:36,[103451|0]
1305,2026-02-02 14:21:36,[103468|0]
1306,2026-02-02 14:21:36,[103468|0]
1307,2026-02-02 14:21:36,[103483|0]
1308,2026-02-02 14:21:36,[103507|0]
1309,2026-02-02 14:21:37,[103547|0]
1310,2026-02-02 14:21:37,[103575|0]
1311,2026-02-02 14:21:37,[103315|0]
1312,2026-02-02 14:21:37,[103104|0]
1313,2026-02-02 14:21:37,[103102|0]
1314,2026-02-02 14:21:37,[103151|0]
1315,2026-02-02 14:21:37,[103221|0]
1316,2026-02-02 14:21:37,[103270|0]
1317,2026-02-02 14:21:37,[103318|0]
1318,2026-02-02 14:21:37,[103299|0]
1319,2026-02-02 14:21:37,[103222|0]
1320,2026-02-02 14:21:37,[103242|0]
1321,2026-02-02 14:21:37,[103309|0]
1322,2026-02-02 14:21:37,[103360|0]
1323,2026-02-02 14:21:37,[103407|0]
1324,2026-02-02 14:21:37,[103475|0]
1325,2026-02-02 14:21:37,[103482|0]
1326,2026-02-02 14:21:37,[103522|0]
1327,2026-02-02 14:21:37,[103552|0]
1328,2026-02-02 14:21:37,[103579|0]
1329,2026-02-02 14:21:37,[103616|0]
1330,2026-02-02 14:21:37,[103623|0]
1331,2026-02-02 14:21:37,[103435|0]
1332,2026-02-02 14:21:37,[103188|0]
1333,2026-02-02 14:21:37,[103140|0]
1334,2026-02-02 14:21:37,[103181|0]
1335,2026-02-02 14:21:38,[103272|0]
1336,2026-02-02 14:21:38,[103361|0]
1337,2026-02-02 14:21:38,[103366|0]
1338,2026-02-02 14:21:38,[103346|0]
1339,2026-02-02 14:21:38,[103342|0]
1340,2026-02-02 14:21:38,[103330|0]
1341,2026-02-02 14:21:38,[103377|0]
1342,2026-02-02 14:21:38,[103476|0]
1343,2026-02-02 14:21:38,[103508|0]
1344,2026-02-02 14:21:38,[103601|0]
1345,2026-02-02 14:21:38,[103644|0]
1346,2026-02-02 14:21:38,[103675|0]
1347,2026-02-02 14:21:38,[103703|0]
1348,2026-02-02 14:21:38,[103700|0]
1349,2026-02-02 14:21:38,[103700|0]
1350,2026-02-02 14:21:38,[103715|0]
1351,2026-02-02 14:21:38,[103467|0]
1352,2026-02-02 14:21:38,[103226|0]
1353,2026-02-02 14:21:38,[103187|0]
1354,2026-02-02 14:21:38,[103239|0]
1355,2026-02-02 14:21:38,[103294|0]
1356,2026-02-02 14:21:38,[103400|0]
1357,2026-02-02 14:21:38,[103461|0]
1358,2026-02-02 14:21:38,[103394|0]
1359,2026-02-02 14:21:39,[103357|0]
1360,2026-02-02 14:21:39,[103369|0]
1361,2026-02-02 14:21:39,[103381|0]
1362,2026-02-02 14:21:39,[103449|0]
1363,2026-02-02 14:21:39,[103519|0]
1364,2026-02-02 14:21:39,[103559|0]
1365,2026-02-02 14:21:39,[103567|0]
1366,2026-02-02 14:21:39,[103593|0]
1367,2026-02-02 14:21:39,[103568|0]
1368,2026-02-02 14:21:39,[103592|0]
1369,2026-02-02 14:21:39,[103642|0]
1370,2026-02-02 14:21:39,[103540|0]
1371,2026-02-02 14:21:39,[103245|0]
1372,2026-02-02 14:21:39,[103144|0]
1373,2026-02-02 14:21:39,[103143|0]
1374,2026-02-02 14:21:39,[103231|0]
1375,2026-02-02 14:21:39,[103342|0]
1376,2026-02-02 14:21:39,[103384|0]
1377,2026-02-02 14:21:39,[103392|0]
1378,2026-02-02 14:21:39,[103346|0]
1379,2026-02-02 14:21:39,[103277|0]
1380,2026-02-02 14:21:39,[103327|0]
1381,2026-02-02 14:21:39,[103382|0]
1382,2026-02-02 14:21:39,[103428|0]
1383,2026-02-02 14:21:39,[103477|0]
1384,2026-02-02 14:21:40,[103502|0]
1385,2026-02-02 14:21:40,[103499|0]
1386,2026-02-02 14:21:40,[103534|0]
1387,2026-02-02 14:21:40,[103567|0]
1388,2026-02-02 14:21:40,[103589|0]
1389,2026-02-02 14:21:40,[103451|0]
1390,2026-02-02 14:21:40,[103191|0]
1391,2026-02-02 14:21:40,[103119|0]
1392,2026-02-02 14:21:40,[103193|0]
1393,2026-02-02 14:21:40,[103262|0]
1394,2026-02-02 14:21:40,[103341|0]
1395,2026-02-02 14:21:40,[103408|0]
1396,2026-02-02 14:21:40,[103339|0]
1397,2026-02-02 14:21:40,[103257|0]
1398,2026-02-02 14:21:40,[103308|0]
1399,2026-02-02 14:21:40,[103341|0]
1400,2026-02-02 14:21:40,[103401|0]
1401,2026-02-02 14:21:40,[103460|0]
1402,2026-02-02 14:21:40,[103492|0]
1403,2026-02-02 14:21:40,[103511|0]
1404,2026-02-02 14:21:40,[103542|0]
1405,2026-02-02 14:21:40,[103541|0]
1406,2026-02-02 14:21:40,[103559|0]
1407,2026-02-02 14:21:40,[103548|0]
1408,2026-02-02 14:21:41,[103263|0]
1409,2026-02-02 14:21:41,[103105|0]
1410,2026-02-02 14:21:41,[103119|0]
1411,2026-02-02 14:21:41,[103169|0]
1412,2026-02-02 14:21:41,[103217|0]
1413,2026-02-02 14:21:41,[103277|0]
1414,2026-02-02 14:21:41,[103274|0]
1415,2026-02-02 14:21:41,[103256|0]
1416,2026-02-02 14:21:41,[103225|0]
1417,2026-02-02 14:21:41,[103249|0]
1418,2026-02-02 14:21:41,[103285|0]
1419,2026-02-02 14:21:41,[103349|0]
1420,2026-02-02 14:21:41,[103368|0]
1421,2026-02-02 14:21:41,[103414|0]
1422,2026-02-02 14:21:41,[103414|0]
1423,2026-02-02 14:21:41,[103439|0]
1424,2026-02-02 14:21:41,[103464|0]
1425,2026-02-02 14:21:41,[103491|0]
1426,2026-02-02 14:21:41,[103505|0]
1427,2026-02-02 14:21:41,[103391|0]
1428,2026-02-02 14:21:41,[103141|0]
1429,2026-02-02 14:21:41,[103064|0]
1430,2026-02-02 14:21:41,[103082|0]
1431,2026-02-02 14:21:41,[103128|0]
1432,2026-02-02 14:21:41,[103181|0]
1433,2026-02-02 14:21:41,[103199|0]
1434,2026-02-02 14:21:42,[103184|0]
1435,2026-02-02 14:21:42,[103166|0]
1436,2026-02-02 14:21:42,[103158|0]
1437,2026-02-02 14:21:42,[103159|0]
1438,2026-02-02 14:21:42,[103200|0]
1439,2026-02-02 14:21:42,[103255|0]
1440,2026-02-02 14:21:42,[103353|0]
1441,2026-02-02 14:21:42,[103411|0]
1442,2026-02-02 14:21:42,[103422|0]
1443,2026-02-02 14:21:42,[103474|0]
1444,2026-02-02 14:21:42,[103504|0]
1445,2026-02-02 14:21:42,[103510|0]
1446,2026-02-02 14:21:42,[103499|0]
1447,2026-02-02 14:21:42,[103232|0]
1448,2026-02-02 14:21:42,[103089|0]
1449,2026-02-02 14:21:42,[103077|0]
1450,2026-02-02 14:21:42,[103126|0]
1451,2026-02-02 14:21:42,[103178|0]
1452,2026-02-02 14:21:42,[103233|0]
1453,2026-02-02 14:21:42,[103221|0]
1454,2026-02-02 14:21:42,[103180|0]
1455,2026-02-02 14:21:42,[103170|0]
1456,2026-02-02 14:21:42,[103266|0]
1457,2026-02-02 14:21:42,[103351|0]
1458,2026-02-02 14:21:42,[103422|0]
1459,2026-02-02 14:21:43,[103453|0]
1460,2026-02-02 14:21:43,[103494|0]
1461,2026-02-02 14:21:43,[103516|0]
1462,2026-02-02 14:21:43,[103506|0]
1463,2026-02-02 14:21:43,[103523|0]
1464,2026-02-02 14:21:43,[103553|0]
1465,2026-02-02 14:21:43,[103561|0]
1466,2026-02-02 14:21:43,[103428|0]
1467,2026-02-02 14:21:43,[103159|0]
1468,2026-02-02 14:21:43,[103065|0]
1469,2026-02-02 14:21:43,[103069|0]
1470,2026-02-02 14:21:43,[103130|0]
1471,2026-02-02 14:21:43,[103155|0]
1472,2026-02-02 14:21:43,[103202|0]
1473,2026-02-02 14:21:43,[103178|0]
1474,2026-02-02 14:21:43,[103175|0]
1475,2026-02-02 14:21:43,[103170|0]
1476,2026-02-02 14:21:43,[103230|0]
1477,2026-02-02 14:21:43,[103276|0]
1478,2026-02-02 14:21:43,[103308|0]
1479,2026-02-02 14:21:43,[103362|0]
1480,2026-02-02 14:21:43,[103385|0]
1481,2026-02-02 14:21:43,[103334|0]
1482,2026-02-02 14:21:43,[103375|0]
1483,2026-02-02 14:21:44,[103352|0]
1484,2026-02-02 14:21:44,[103376|0]
1485,2026-02-02 14:21:44,[103411|0]
1486,2026-02-02 14:21:44,[103432|0]
1487,2026-02-02 14:21:44,[103213|0]
1488,2026-02-02 14:21:44,[103019|0]
1489,2026-02-02 14:21:44,[103003|0]
1490,2026-02-02 14:21:44,[103003|0]
1491,2026-02-02 14:21:44,[103068|0]
1492,2026-02-02 14:21:44,[103099|0]
1493,2026-02-02 14:21:44,[103091|0]
1494,2026-02-02 14:21:44,[103104|0]
1495,2026-02-02 14:21:44,[103086|0]
1496,2026-02-02 14:21:44,[103066|0]
1497,2026-02-02 14:21:44,[103094|0]
1498,2026-02-02 14:21:44,[103144|0]
1499,2026-02-02 14:21:44,[103141|0]
1500,2026-02-02 14:21:44,[103177|0]
1501,2026-02-02 14:21:44,[103199|0]
1502,2026-02-02 14:21:44,[103182|0]
1503,2026-02-02 14:21:44,[103189|0]
1504,2026-02-02 14:21:44,[103186|0]
1505,2026-02-02 14:21:44,[103182|0]
1506,2026-02-02 14:21:44,[103236|0]
1507,2026-02-02 14:21:44,[103287|0]
1508,2026-02-02 14:21:44,[103175|0]
1509,2026-02-02 14:21:45,[102993|0]
1510,2026-02-02 14:21:45,[102921|0]
1511,2026-02-02 14:21:45,[102919|0]
1512,2026-02-02 14:21:45,[102983|0]
1513,2026-02-02 14:21:45,[103036|0]
1514,2026-02-02 14:21:45,[103084|0]
1515,2026-02-02 14:21:45,[103076|0]
1516,2026-02-02 14:21:45,[103029|0]
1517,2026-02-02 14:21:45,[103024|0]
1518,2026-02-02 14:21:45,[103057|0]
1519,2026-02-02 14:21:45,[103096|0]
1520,2026-02-02 14:21:45,[103144|0]
1521,2026-02-02 14:21:45,[103173|0]
1522,2026-02-02 14:21:45,[103204|0]
1523,2026-02-02 14:21:45,[103181|0]
1524,2026-02-02 14:21:45,[103204|0]
1525,2026-02-02 14:21:45,[103230|0]
1526,2026-02-02 14:21:45,[103228|0]
1527,2026-02-02 14:21:45,[103274|0]
1528,2026-02-02 14:21:45,[103296|0]
1529,2026-02-02 14:21:45,[103336|0]
1530,2026-02-02 14:21:45,[103221|0]
1531,2026-02-02 14:21:45,[102978|0]
1532,2026-02-02 14:21:45,[102910|0]
1533,2026-02-02 14:21:45,[102928|0]
1534,2026-02-02 14:21:46,[102940|0]
1535,2026-02-02 14:21:46,[102979|0]
1536,2026-02-02 14:21:46,[102979|0]
1537,2026-02-02 14:21:46,[103015|0]
1538,2026-02-02 14:21:46,[103030|0]
1539,2026-02-02 14:21:46,[102994|0]
1540,2026-02-02 14:21:46,[102992|0]
1541,2026-02-02 14:21:46,[103012|0]
1542,2026-02-02 14:21:46,[103064|0]
1543,2026-02-02 14:21:46,[103163|0]
1544,2026-02-02 14:21:46,[103222|0]
1545,2026-02-02 14:21:46,[103281|0]
1546,2026-02-02 14:21:46,[103340|0]
1547,2026-02-02 14:21:46,[103328|0]
1548,2026-02-02 14:21:46,[103362|0]
1549,2026-02-02 14:21:46,[103410|0]
1550,2026-02-02 14:21:46,[103408|0]
1551,2026-02-02 14:21:46,[103402|0]
1552,2026-02-02 14:21:46,[103451|0]
1553,2026-02-02 14:21:46,[103383|0]
1554,2026-02-02 14:21:46,[103114|0]
1555,2026-02-02 14:21:46,[102969|0]
1556,2026-02-02 14:21:46,[102977|0]
1557,2026-02-02 14:21:46,[103008|0]
1558,2026-02-02 14:21:47,[103058|0]
1559,2026-02-02 14:21:47,[103094|0]
1560,2026-02-02 14:21:47,[103130|0]
1561,2026-02-02 14:21:47,[103098|0]
1562,2026-02-02 14:21:47,[103094|0]
1563,2026-02-02 14:21:47,[103136|0]
1564,2026-02-02 14:21:47,[103173|0]
1565,2026-02-02 14:21:47,[103212|0]
1566,2026-02-02 14:21:47,[103292|0]
1567,2026-02-02 14:21:47,[103321|0]
1568,2026-02-02 14:21:47,[103336|0]
1569,2026-02-02 14:21:47,[103363|0]
1570,2026-02-02 14:21:47,[103391|0]
1571,2026-02-02 14:21:47,[103387|0]
1572,2026-02-02 14:21:47,[103429|0]
1573,2026-02-02 14:21:47,[103463|0]
1574,2026-02-02 14:21:47,[103516|0]
1575,2026-02-02 14:21:47,[103445|0]
1576,2026-02-02 14:21:47,[103119|0]
1577,2026-02-02 14:21:47,[103001|0]
1578,2026-02-02 14:21:47,[103038|0]
1579,2026-02-02 14:21:47,[103117|0]
1580,2026-02-02 14:21:47,[103163|0]
1581,2026-02-02 14:21:47,[103216|0]
1582,2026-02-02 14:21:47,[103244|0]
1583,2026-02-02 14:21:47,[103187|0]
1584,2026-02-02 14:21:48,[103180|0]
1585,2026-02-02 14:21:48,[103216|0]
1586,2026-02-02 14:21:48,[103295|0]
1587,2026-02-02 14:21:48,[103369|0]
1588,2026-02-02 14:21:48,[103415|0]
1589,2026-02-02 14:21:48,[103432|0]
1590,2026-02-02 14:21:48,[103489|0]
1591,2026-02-02 14:21:48,[103502|0]
1592,2026-02-02 14:21:48,[103516|0]
1593,2026-02-02 14:21:48,[103557|0]
1594,2026-02-02 14:21:48,[103595|0]
1595,2026-02-02 14:21:48,[103586|0]
1596,2026-02-02 14:21:48,[103611|0]
1597,2026-02-02 14:21:48,[103433|0]
1598,2026-02-02 14:21:48,[103137|0]
1599,2026-02-02 14:21:48,[103089|0]
1600,2026-02-02 14:21:48,[103157|0]
1601,2026-02-02 14:21:48,[103178|0]
1602,2026-02-02 14:21:48,[103246|0]
1603,2026-02-02 14:21:48,[103286|0]
1604,2026-02-02 14:21:48,[103262|0]
1605,2026-02-02 14:21:48,[103237|0]
1606,2026-02-02 14:21:48,[103225|0]
1607,2026-02-02 14:21:48,[103229|0]
1608,2026-02-02 14:21:48,[103307|0]
1609,2026-02-02 14:21:49,[103351|0]
1610,2026-02-02 14:21:49,[103378|0]
1611,2026-02-02 14:21:49,[103383|0]
1612,2026-02-02 14:21:49,[103400|0]
1613,2026-02-02 14:21:49,[103401|0]
1614,2026-02-02 14:21:49,[103437|0]
1615,2026-02-02 14:21:49,[103464|0]
1616,2026-02-02 14:21:49,[103518|0]
1617,2026-02-02 14:21:49,[103478|0]
1618,2026-02-02 14:21:49,[103211|0]
1619,2026-02-02 14:21:49,[103079|0]
1620,2026-02-02 14:21:49,[103107|0]
1621,2026-02-02 14:21:49,[103145|0]
1622,2026-02-02 14:21:49,[103207|0]
1623,2026-02-02 14:21:49,[103240|0]
1624,2026-02-02 14:21:49,[103212|0]
1625,2026-02-02 14:21:49,[103173|0]
1626,2026-02-02 14:21:49,[103173|0]
1627,2026-02-02 14:21:49,[103187|0]
1628,2026-02-02 14:21:49,[103244|0]
1629,2026-02-02 14:21:49,[103341|0]
1630,2026-02-02 14:21:49,[103366|0]
1631,2026-02-02 14:21:49,[103375|0]
1632,2026-02-02 14:21:49,[103416|0]
1633,2026-02-02 14:21:50,[103421|0]
1634,2026-02-02 14:21:50,[103446|0]
1635,2026-02-02 14:21:50,[103378|0]
1636,2026-02-02 14:21:50,[103109|0]
1637,2026-02-02 14:21:50,[103013|0]
1638,2026-02-02 14:21:50,[103029|0]
1639,2026-02-02 14:21:50,[103063|0]
1640,2026-02-02 14:21:50,[103119|0]
1641,2026-02-02 14:21:50,[103175|0]
1642,2026-02-02 14:21:50,[103150|0]
1643,2026-02-02 14:21:50,[103117|0]
1644,2026-02-02 14:21:50,[103132|0]
1645,2026-02-02 14:21:50,[103156|0]
1646,2026-02-02 14:21:50,[103179|0]
1647,2026-02-02 14:21:50,[103205|0]
1648,2026-02-02 14:21:50,[103218|0]
1649,2026-02-02 14:21:50,[103234|0]
1650,2026-02-02 14:21:50,[103282|0]
1651,2026-02-02 14:21:50,[103282|0]
1652,2026-02-02 14:21:50,[103337|0]
1653,2026-02-02 14:21:50,[103373|0]
1654,2026-02-02 14:21:50,[103357|0]
1655,2026-02-02 14:21:50,[103101|0]
1656,2026-02-02 14:21:50,[102964|0]
1657,2026-02-02 14:21:50,[102998|0]
1658,2026-02-02 14:21:50,[103028|0]
1659,2026-02-02 14:21:51,[103048|0]
1660,2026-02-02 14:21:51,[103082|0]
1661,2026-02-02 14:21:51,[103070|0]
1662,2026-02-02 14:21:51,[103048|0]
1663,2026-02-02 14:21:51,[103033|0]
1664,2026-02-02 14:21:51,[103054|0]
1665,2026-02-02 14:21:51,[103058|0]
1666,2026-02-02 14:21:51,[103054|0]
1667,2026-02-02 14:21:51,[103055|0]
1668,2026-02-02 14:21:51,[103129|0]
1669,2026-02-02 14:21:51,[103135|0]
1670,2026-02-02 14:21:51,[103138|0]
1671,2026-02-02 14:21:51,[103194|0]
1672,2026-02-02 14:21:51,[103210|0]
1673,2026-02-02 14:21:51,[103182|0]
1674,2026-02-02 14:21:51,[103005|0]
1675,2026-02-02 14:21:51,[102823|0]
1676,2026-02-02 14:21:51,[102810|0]
1677,2026-02-02 14:21:51,[102844|0]
1678,2026-02-02 14:21:51,[102865|0]
1679,2026-02-02 14:21:51,[102875|0]
1680,2026-02-02 14:21:51,[102943|0]
1681,2026-02-02 14:21:51,[102924|0]
1682,2026-02-02 14:21:51,[102897|0]
1683,2026-02-02 14:21:51,[102909|0]
1684,2026-02-02 14:21:52,[102940|0]
1685,2026-02-02 14:21:52,[102940|0]
1686,2026-02-02 14:21:52,[103006|0]
1687,2026-02-02 14:21:52,[103017|0]
1688,2026-02-02 14:21:52,[103025|0]
1689,2026-02-02 14:21:52,[103047|0]
1690,2026-02-02 14:21:52,[103077|0]
1691,2026-02-02 14:21:52,[103065|0]
1692,2026-02-02 14:21:52,[103114|0]
1693,2026-02-02 14:21:52,[103030|0]
1694,2026-02-02 14:21:52,[102822|0]
1695,2026-02-02 14:21:52,[102766|0]
1696,2026-02-02 14:21:52,[102764|0]
1697,2026-02-02 14:21:52,[102774|0]
1698,2026-02-02 14:21:52,[102814|0]
1699,2026-02-02 14:21:52,[102884|0]
1700,2026-02-02 14:21:52,[102884|0]
1701,2026-02-02 14:21:52,[102877|0]
1702,2026-02-02 14:21:52,[102873|0]
1703,2026-02-02 14:21:52,[102867|0]
1704,2026-02-02 14:21:52,[102944|0]
1705,2026-02-02 14:21:52,[102971|0]
1706,2026-02-02 14:21:52,[103004|0]
1707,2026-02-02 14:21:52,[103054|0]
1708,2026-02-02 14:21:53,[103071|0]
1709,2026-02-02 14:21:53,[103059|0]
1710,2026-02-02 14:21:53,[103110|0]
1711,2026-02-02 14:21:53,[103116|0]
1712,2026-02-02 14:21:53,[103127|0]
1713,2026-02-02 14:21:53,[103186|0]
1714,2026-02-02 14:21:53,[103250|0]
1715,2026-02-02 14:21:53,[103119|0]
1716,2026-02-02 14:21:53,[102839|0]
1717,2026-02-02 14:21:53,[102750|0]
1718,2026-02-02 14:21:53,[102756|0]
1719,2026-02-02 14:21:53,[102822|0]
1720,2026-02-02 14:21:53,[102836|0]
1721,2026-02-02 14:21:53,[102848|0]
1722,2026-02-02 14:21:53,[102885|0]
1723,2026-02-02 14:21:53,[102884|0]
1724,2026-02-02 14:21:53,[102854|0]
1725,2026-02-02 14:21:53,[102860|0]
1726,2026-02-02 14:21:53,[102896|0]
1727,2026-02-02 14:21:53,[102933|0]
1728,2026-02-02 14:21:53,[102992|0]
1729,2026-02-02 14:21:53,[102995|0]
1730,2026-02-02 14:21:53,[103008|0]
1731,2026-02-02 14:21:53,[103045|0]
1732,2026-02-02 14:21:53,[103049|0]
1733,2026-02-02 14:21:53,[103063|0]
1734,2026-02-02 14:21:54,[103124|0]
1735,2026-02-02 14:21:54,[103171|0]
1736,2026-02-02 14:21:54,[103198|0]
1737,2026-02-02 14:21:54,[103210|0]
1738,2026-02-02 14:21:54,[102940|0]
1739,2026-02-02 14:21:54,[102744|0]
1740,2026-02-02 14:21:54,[102757|0]
1741,2026-02-02 14:21:54,[102797|0]
1742,2026-02-02 14:21:54,[102848|0]
1743,2026-02-02 14:21:54,[102921|0]
1744,2026-02-02 14:21:54,[102926|0]
1745,2026-02-02 14:21:54,[102897|0]
1746,2026-02-02 14:21:54,[102864|0]
1747,2026-02-02 14:21:54,[102871|0]
1748,2026-02-02 14:21:54,[102928|0]
1749,2026-02-02 14:21:54,[102975|0]
1750,2026-02-02 14:21:54,[102998|0]
1751,2026-02-02 14:21:54,[103052|0]
1752,2026-02-02 14:21:54,[103101|0]
1753,2026-02-02 14:21:54,[103131|0]
1754,2026-02-02 14:21:54,[103182|0]
1755,2026-02-02 14:21:54,[103218|0]
1756,2026-02-02 14:21:54,[103236|0]
1757,2026-02-02 14:21:54,[103285|0]
1758,2026-02-02 14:21:54,[103340|0]
1759,2026-02-02 14:21:55,[103313|0]
1760,2026-02-02 14:21:55,[102985|0]
1761,2026-02-02 14:21:55,[102795|0]
1762,2026-02-02 14:21:55,[102799|0]
1763,2026-02-02 14:21:55,[102861|0]
1764,2026-02-02 14:21:55,[102861|0]
1765,2026-02-02 14:21:55,[102928|0]
1766,2026-02-02 14:21:55,[102992|0]
1767,2026-02-02 14:21:55,[103018|0]
1768,2026-02-02 14:21:55,[103001|0]
1769,2026-02-02 14:21:55,[102960|0]
1770,2026-02-02 14:21:55,[102972|0]
1771,2026-02-02 14:21:55,[103050|0]
1772,2026-02-02 14:21:55,[103108|0]
1773,2026-02-02 14:21:55,[103147|0]
1774,2026-02-02 14:21:55,[103194|0]
1775,2026-02-02 14:21:55,[103215|0]
1776,2026-02-02 14:21:55,[103255|0]
1777,2026-02-02 14:21:55,[103291|0]
1778,2026-02-02 14:21:55,[103321|0]
1779,2026-02-02 14:21:55,[103332|0]
1780,2026-02-02 14:21:55,[103351|0]
1781,2026-02-02 14:21:55,[103385|0]
1782,2026-02-02 14:21:55,[103331|0]
1783,2026-02-02 14:21:56,[102993|0]
1784,2026-02-02 14:21:56,[102825|0]
1785,2026-02-02 14:21:56,[102862|0]
1786,2026-02-02 14:21:56,[102941|0]
1787,2026-02-02 14:21:56,[103002|0]
1788,2026-02-02 14:21:56,[103111|0]
1789,2026-02-02 14:21:56,[103145|0]
1790,2026-02-02 14:21:56,[103136|0]
1791,2026-02-02 14:21:56,[103117|0]
1792,2026-02-02 14:21:56,[103137|0]
1793,2026-02-02 14:21:56,[103183|0]
1794,2026-02-02 14:21:56,[103271|0]
1795,2026-02-02 14:21:56,[103322|0]
1796,2026-02-02 14:21:56,[103348|0]
1797,2026-02-02 14:21:56,[103384|0]
1798,2026-02-02 14:21:56,[103411|0]
1799,2026-02-02 14:21:56,[103396|0]
1800,2026-02-02 14:21:56,[103447|0]
1801,2026-02-02 14:21:56,[103478|0]
1802,2026-02-02 14:21:56,[103512|0]
1803,2026-02-02 14:21:56,[103432|0]
1804,2026-02-02 14:21:56,[103099|0]
1805,2026-02-02 14:21:56,[102910|0]
1806,2026-02-02 14:21:56,[102976|0]
1807,2026-02-02 14:21:56,[103079|0]
1808,2026-02-02 14:21:56,[103182|0]
1809,2026-02-02 14:21:57,[103289|0]
1810,2026-02-02 14:21:57,[103325|0]
1811,2026-02-02 14:21:57,[103268|0]
1812,2026-02-02 14:21:57,[103290|0]
1813,2026-02-02 14:21:57,[103303|0]
1814,2026-02-02 14:21:57,[103354|0]
1815,2026-02-02 14:21:57,[103406|0]
1816,2026-02-02 14:21:57,[103456|0]
1817,2026-02-02 14:21:57,[103447|0]
1818,2026-02-02 14:21:57,[103503|0]
1819,2026-02-02 14:21:57,[103511|0]
1820,2026-02-02 14:21:57,[103528|0]
1821,2026-02-02 14:21:57,[103552|0]
1822,2026-02-02 14:21:57,[103584|0]
1823,2026-02-02 14:21:57,[103564|0]
1824,2026-02-02 14:21:57,[103313|0]
1825,2026-02-02 14:21:57,[103008|0]
1826,2026-02-02 14:21:57,[102990|0]
1827,2026-02-02 14:21:57,[103093|0]
1828,2026-02-02 14:21:57,[103202|0]
1829,2026-02-02 14:21:57,[103285|0]
1830,2026-02-02 14:21:57,[103339|0]
1831,2026-02-02 14:21:57,[103342|0]
1832,2026-02-02 14:21:57,[103316|0]
1833,2026-02-02 14:21:57,[103322|0]
1834,2026-02-02 14:21:58,[103357|0]
1835,2026-02-02 14:21:58,[103394|0]
1836,2026-02-02 14:21:58,[103469|0]
1837,2026-02-02 14:21:58,[103506|0]
1838,2026-02-02 14:21:58,[103533|0]
1839,2026-02-02 14:21:58,[103560|0]
1840,2026-02-02 14:21:58,[103557|0]
1841,2026-02-02 14:21:58,[103582|0]
1842,2026-02-02 14:21:58,[103632|0]
1843,2026-02-02 14:21:58,[103564|0]
1844,2026-02-02 14:21:58,[103245|0]
1845,2026-02-02 14:21:58,[103049|0]
1846,2026-02-02 14:21:58,[103067|0]
1847,2026-02-02 14:21:58,[103167|0]
1848,2026-02-02 14:21:58,[103270|0]
1849,2026-02-02 14:21:58,[103382|0]
1850,2026-02-02 14:21:58,[103393|0]
1851,2026-02-02 14:21:58,[103340|0]
1852,2026-02-02 14:21:58,[103313|0]
1853,2026-02-02 14:21:58,[103340|0]
1854,2026-02-02 14:21:58,[103392|0]
1855,2026-02-02 14:21:58,[103453|0]
1856,2026-02-02 14:21:58,[103493|0]
1857,2026-02-02 14:21:58,[103536|0]
1858,2026-02-02 14:21:59,[103546|0]
1859,2026-02-02 14:21:59,[103550|0]
1860,2026-02-02 14:21:59,[103576|0]
1861,2026-02-02 14:21:59,[103547|0]
1862,2026-02-02 14:21:59,[103263|0]
1863,2026-02-02 14:21:59,[103064|0]
1864,2026-02-02 14:21:59,[103077|0]
1865,2026-02-02 14:21:59,[103177|0]
1866,2026-02-02 14:21:59,[103304|0]
1867,2026-02-02 14:21:59,[103407|0]
1868,2026-02-02 14:21:59,[103451|0]
1869,2026-02-02 14:21:59,[103418|0]
1870,2026-02-02 14:21:59,[103375|0]
1871,2026-02-02 14:21:59,[103416|0]
1872,2026-02-02 14:21:59,[103475|0]
1873,2026-02-02 14:21:59,[103526|0]
1874,2026-02-02 14:21:59,[103570|0]
1875,2026-02-02 14:21:59,[103599|0]
1876,2026-02-02 14:21:59,[103611|0]
1877,2026-02-02 14:21:59,[103611|0]
1878,2026-02-02 14:21:59,[103649|0]
1879,2026-02-02 14:21:59,[103672|0]
1880,2026-02-02 14:21:59,[103674|0]
1881,2026-02-02 14:21:59,[103414|0]
1882,2026-02-02 14:21:59,[103144|0]
1883,2026-02-02 14:21:59,[103107|0]
1884,2026-02-02 14:22:00,[103170|0]
1885,2026-02-02 14:22:00,[103287|0]
1886,2026-02-02 14:22:00,[103381|0]
1887,2026-02-02 14:22:00,[103436|0]
1888,2026-02-02 14:22:00,[103415|0]
1889,2026-02-02 14:22:00,[103351|0]
1890,2026-02-02 14:22:00,[103374|0]
1891,2026-02-02 14:22:00,[103427|0]
1892,2026-02-02 14:22:00,[103471|0]
1893,2026-02-02 14:22:00,[103521|0]
1894,2026-02-02 14:22:00,[103551|0]
1895,2026-02-02 14:22:00,[103557|0]
1896,2026-02-02 14:22:00,[103586|0]
1897,2026-02-02 14:22:00,[103613|0]
1898,2026-02-02 14:22:00,[103649|0]
1899,2026-02-02 14:22:00,[103482|0]
1900,2026-02-02 14:22:00,[103195|0]
1901,2026-02-02 14:22:00,[103075|0]
1902,2026-02-02 14:22:00,[103155|0]
1903,2026-02-02 14:22:00,[103258|0]
1904,2026-02-02 14:22:00,[103371|0]
1905,2026-02-02 14:22:00,[103437|0]
1906,2026-02-02 14:22:00,[103415|0]
1907,2026-02-02 14:22:00,[103366|0]
1908,2026-02-02 14:22:00,[103389|0]
1909,2026-02-02 14:22:01,[103413|0]
1910,2026-02-02 14:22:01,[103465|0]
1911,2026-02-02 14:22:01,[103492|0]
1912,2026-02-02 14:22:01,[103543|0]
1913,2026-02-02 14:22:01,[103543|0]
1914,2026-02-02 14:22:01,[103576|0]
1915,2026-02-02 14:22:01,[103587|0]
1916,2026-02-02 14:22:01,[103604|0]
1917,2026-02-02 14:22:01,[103630|0]
1918,2026-02-02 14:22:01,[103483|0]
1919,2026-02-02 14:22:01,[103182|0]
1920,2026-02-02 14:22:01,[103096|0]
1921,2026-02-02 14:22:01,[103170|0]
1922,2026-02-02 14:22:01,[103271|0]
1923,2026-02-02 14:22:01,[103365|0]
1924,2026-02-02 14:22:01,[103443|0]
1925,2026-02-02 14:22:01,[103380|0]
1926,2026-02-02 14:22:01,[103352|0]
1927,2026-02-02 14:22:01,[103360|0]
1928,2026-02-02 14:22:01,[103386|0]
1929,2026-02-02 14:22:01,[103435|0]
1930,2026-02-02 14:22:01,[103475|0]
1931,2026-02-02 14:22:01,[103487|0]
1932,2026-02-02 14:22:01,[103545|0]
1933,2026-02-02 14:22:02,[103541|0]
1934,2026-02-02 14:22:02,[103559|0]
1935,2026-02-02 14:22:02,[103561|0]
1936,2026-02-02 14:22:02,[103573|0]
1937,2026-02-02 14:22:02,[103368|0]
1938,2026-02-02 14:22:02,[103109|0]
1939,2026-02-02 14:22:02,[103062|0]
1940,2026-02-02 14:22:02,[103140|0]
1941,2026-02-02 14:22:02,[103210|0]
1942,2026-02-02 14:22:02,[103296|0]
1943,2026-02-02 14:22:02,[103338|0]
1944,2026-02-02 14:22:02,[103314|0]
1945,2026-02-02 14:22:02,[103301|0]
1946,2026-02-02 14:22:02,[103324|0]
1947,2026-02-02 14:22:02,[103356|0]
1948,2026-02-02 14:22:02,[103383|0]
1949,2026-02-02 14:22:02,[103420|0]
1950,2026-02-02 14:22:02,[103472|0]
1951,2026-02-02 14:22:02,[103500|0]
1952,2026-02-02 14:22:02,[103520|0]
1953,2026-02-02 14:22:02,[103535|0]
1954,2026-02-02 14:22:02,[103555|0]
1955,2026-02-02 14:22:02,[103570|0]
1956,2026-02-02 14:22:02,[103541|0]
1957,2026-02-02 14:22:02,[103270|0]
1958,2026-02-02 14:22:02,[103076|0]
1959,2026-02-02 14:22:03,[103099|0]
1960,2026-02-02 14:22:03,[103163|0]
1961,2026-02-02 14:22:03,[103225|0]
1962,2026-02-02 14:22:03,[103321|0]
1963,2026-02-02 14:22:03,[103347|0]
1964,2026-02-02 14:22:03,[103332|0]
1965,2026-02-02 14:22:03,[103310|0]
1966,2026-02-02 14:22:03,[103325|0]
1967,2026-02-02 14:22:03,[103367|0]
1968,2026-02-02 14:22:03,[103461|0]
1969,2026-02-02 14:22:03,[103489|0]
1970,2026-02-02 14:22:03,[103500|0]
1971,2026-02-02 14:22:03,[103535|0]
1972,2026-02-02 14:22:03,[103547|0]
1973,2026-02-02 14:22:03,[103558|0]
1974,2026-02-02 14:22:03,[103592|0]
1975,2026-02-02 14:22:03,[103624|0]
1976,2026-02-02 14:22:03,[103650|0]
1977,2026-02-02 14:22:03,[103462|0]
1978,2026-02-02 14:22:03,[103159|0]
1979,2026-02-02 14:22:03,[103096|0]
1980,2026-02-02 14:22:03,[103171|0]
1981,2026-02-02 14:22:03,[103255|0]
1982,2026-02-02 14:22:03,[103317|0]
1983,2026-02-02 14:22:03,[103374|0]
1984,2026-02-02 14:22:04,[103347|0]
1985,2026-02-02 14:22:04,[103305|0]
1986,2026-02-02 14:22:04,[103311|0]
1987,2026-02-02 14:22:04,[103371|0]
1988,2026-02-02 14:22:04,[103411|0]
1989,2026-02-02 14:22:04,[103411|0]
1990,2026-02-02 14:22:04,[103470|0]
1991,2026-02-02 14:22:04,[103487|0]
1992,2026-02-02 14:22:04,[103521|0]
1993,2026-02-02 14:22:04,[103541|0]
1994,2026-02-02 14:22:04,[103549|0]
1995,2026-02-02 14:22:04,[103576|0]
1996,2026-02-02 14:22:04,[103622|0]
1997,2026-02-02 14:22:04,[103533|0]
1998,2026-02-02 14:22:04,[103273|0]
1999,2026-02-02 14:22:04,[103144|0]
2000,2026-02-02 14:22:04,[103146|0]
2001,2026-02-02 14:22:04,[103237|0]
2002,2026-02-02 14:22:04,[103323|0]
2003,2026-02-02 14:22:04,[103365|0]
2004,2026-02-02 14:22:04,[103379|0]
2005,2026-02-02 14:22:04,[103345|0]
2006,2026-02-02 14:22:04,[103329|0]
2007,2026-02-02 14:22:04,[103351|0]
2008,2026-02-02 14:22:05,[103399|0]
2009,2026-02-02 14:22:05,[103408|0]
2010,2026-02-02 14:22:05,[103462|0]
2011,2026-02-02 14:22:05,[103498|0]
2012,2026-02-02 14:22:05,[103502|0]
2013,2026-02-02 14:22:05,[103512|0]
2014,2026-02-02 14:22:05,[103525|0]
2015,2026-02-02 14:22:05,[103507|0]
2016,2026-02-02 14:22:05,[103560|0]
2017,2026-02-02 14:22:05,[103391|0]
2018,2026-02-02 14:22:05,[103112|0]
2019,2026-02-02 14:22:05,[103059|0]
2020,2026-02-02 14:22:05,[103089|0]
2021,2026-02-02 14:22:05,[103147|0]
2022,2026-02-02 14:22:05,[103224|0]
2023,2026-02-02 14:22:05,[103258|0]
2024,2026-02-02 14:22:05,[103252|0]
2025,2026-02-02 14:22:05,[103239|0]
2026,2026-02-02 14:22:05,[103236|0]
2027,2026-02-02 14:22:05,[103240|0]
2028,2026-02-02 14:22:05,[103312|0]
2029,2026-02-02 14:22:05,[103353|0]
2030,2026-02-02 14:22:05,[103393|0]
2031,2026-02-02 14:22:05,[103427|0]
2032,2026-02-02 14:22:05,[103441|0]
2033,2026-02-02 14:22:05,[103422|0]
2034,2026-02-02 14:22:06,[103456|0]
2035,2026-02-02 14:22:06,[103477|0]
2036,2026-02-02 14:22:06,[103504|0]
2037,2026-02-02 14:22:06,[103539|0]
2038,2026-02-02 14:22:06,[103386|0]
2039,2026-02-02 14:22:06,[103081|0]
2040,2026-02-02 14:22:06,[103046|0]
2041,2026-02-02 14:22:06,[103094|0]
2042,2026-02-02 14:22:06,[103144|0]
2043,2026-02-02 14:22:06,[103207|0]
2044,2026-02-02 14:22:06,[103268|0]
2045,2026-02-02 14:22:06,[103221|0]
2046,2026-02-02 14:22:06,[103208|0]
2047,2026-02-02 14:22:06,[103215|0]
2048,2026-02-02 14:22:06,[103247|0]
2049,2026-02-02 14:22:06,[103288|0]
2050,2026-02-02 14:22:06,[103327|0]
2051,2026-02-02 14:22:06,[103324|0]
2052,2026-02-02 14:22:06,[103380|0]
2053,2026-02-02 14:22:06,[103403|0]
2054,2026-02-02 14:22:06,[103414|0]
2055,2026-02-02 14:22:06,[103428|0]
2056,2026-02-02 14:22:06,[103465|0]
2057,2026-02-02 14:22:06,[103475|0]
2058,2026-02-02 14:22:06,[103461|0]
2059,2026-02-02 14:22:07,[103212|0]
2060,2026-02-02 14:22:07,[103029|0]
2061,2026-02-02 14:22:07,[103039|0]
2062,2026-02-02 14:22:07,[103088|0]
2063,2026-02-02 14:22:07,[103126|0]
2064,2026-02-02 14:22:07,[103226|0]
2065,2026-02-02 14:22:07,[103224|0]
2066,2026-02-02 14:22:07,[103202|0]
2067,2026-02-02 14:22:07,[103166|0]
2068,2026-02-02 14:22:07,[103181|0]
2069,2026-02-02 14:22:07,[103217|0]
2070,2026-02-02 14:22:07,[103287|0]
2071,2026-02-02 14:22:07,[103327|0]
2072,2026-02-02 14:22:07,[103364|0]
2073,2026-02-02 14:22:07,[103371|0]
2074,2026-02-02 14:22:07,[103361|0]
2075,2026-02-02 14:22:07,[103383|0]
2076,2026-02-02 14:22:07,[103421|0]
2077,2026-02-02 14:22:07,[103422|0]
2078,2026-02-02 14:22:07,[103437|0]
2079,2026-02-02 14:22:07,[103485|0]
2080,2026-02-02 14:22:07,[103390|0]
2081,2026-02-02 14:22:07,[103062|0]
2082,2026-02-02 14:22:07,[102951|0]
2083,2026-02-02 14:22:08,[102991|0]
2084,2026-02-02 14:22:08,[103017|0]
2085,2026-02-02 14:22:08,[103072|0]
2086,2026-02-02 14:22:08,[103108|0]
2087,2026-02-02 14:22:08,[103138|0]
2088,2026-02-02 14:22:08,[103118|0]
2089,2026-02-02 14:22:08,[103096|0]
2090,2026-02-02 14:22:08,[103149|0]
2091,2026-02-02 14:22:08,[103172|0]
2092,2026-02-02 14:22:08,[103212|0]
2093,2026-02-02 14:22:08,[103279|0]
2094,2026-02-02 14:22:08,[103307|0]
2095,2026-02-02 14:22:08,[103334|0]
2096,2026-02-02 14:22:08,[103355|0]
2097,2026-02-02 14:22:08,[103364|0]
2098,2026-02-02 14:22:08,[103363|0]
2099,2026-02-02 14:22:08,[103381|0]
2100,2026-02-02 14:22:08,[103417|0]
2101,2026-02-02 14:22:08,[103450|0]
2102,2026-02-02 14:22:08,[103464|0]
2103,2026-02-02 14:22:08,[103314|0]
2104,2026-02-02 14:22:08,[103314|0]
2105,2026-02-02 14:22:08,[102989|0]
2106,2026-02-02 14:22:08,[102924|0]
2107,2026-02-02 14:22:08,[102991|0]
2108,2026-02-02 14:22:08,[103056|0]
2109,2026-02-02 14:22:09,[103091|0]
2110,2026-02-02 14:22:09,[103160|0]
2111,2026-02-02 14:22:09,[103151|0]
2112,2026-02-02 14:22:09,[103090|0]
2113,2026-02-02 14:22:09,[103117|0]
2114,2026-02-02 14:22:09,[103142|0]
2115,2026-02-02 14:22:09,[103203|0]
2116,2026-02-02 14:22:09,[103269|0]
2117,2026-02-02 14:22:09,[103300|0]
2118,2026-02-02 14:22:09,[103345|0]
2119,2026-02-02 14:22:09,[103364|0]
2120,2026-02-02 14:22:09,[103384|0]
2121,2026-02-02 14:22:09,[103411|0]
2122,2026-02-02 14:22:09,[103429|0]
2123,2026-02-02 14:22:09,[103411|0]
2124,2026-02-02 14:22:09,[103455|0]
2125,2026-02-02 14:22:09,[103510|0]
2126,2026-02-02 14:22:09,[103370|0]
2127,2026-02-02 14:22:09,[103064|0]
2128,2026-02-02 14:22:09,[102965|0]
2129,2026-02-02 14:22:09,[102983|0]
2130,2026-02-02 14:22:09,[103082|0]
2131,2026-02-02 14:22:09,[103166|0]
2132,2026-02-02 14:22:09,[103242|0]
2133,2026-02-02 14:22:09,[103223|0]
2134,2026-02-02 14:22:10,[103194|0]
2135,2026-02-02 14:22:10,[103177|0]
2136,2026-02-02 14:22:10,[103235|0]
2137,2026-02-02 14:22:10,[103283|0]
2138,2026-02-02 14:22:10,[103348|0]
2139,2026-02-02 14:22:10,[103377|0]
2140,2026-02-02 14:22:10,[103421|0]
2141,2026-02-02 14:22:10,[103405|0]
2142,2026-02-02 14:22:10,[103432|0]
2143,2026-02-02 14:22:10,[103457|0]
2144,2026-02-02 14:22:10,[103479|0]
2145,2026-02-02 14:22:10,[103491|0]
2146,2026-02-02 14:22:10,[103526|0]
2147,2026-02-02 14:22:10,[103537|0]
2148,2026-02-02 14:22:10,[103511|0]
2149,2026-02-02 14:22:10,[103220|0]
2150,2026-02-02 14:22:10,[102997|0]
2151,2026-02-02 14:22:10,[103018|0]
2152,2026-02-02 14:22:10,[103112|0]
2153,2026-02-02 14:22:10,[103150|0]
2154,2026-02-02 14:22:10,[103273|0]
2155,2026-02-02 14:22:10,[103315|0]
2156,2026-02-02 14:22:10,[103284|0]
2157,2026-02-02 14:22:10,[103274|0]
2158,2026-02-02 14:22:10,[103291|0]
2159,2026-02-02 14:22:10,[103302|0]
2160,2026-02-02 14:22:11,[103375|0]
2161,2026-02-02 14:22:11,[103424|0]
2162,2026-02-02 14:22:11,[103463|0]
2163,2026-02-02 14:22:11,[103469|0]
2164,2026-02-02 14:22:11,[103476|0]
2165,2026-02-02 14:22:11,[103478|0]
2166,2026-02-02 14:22:11,[103522|0]
2167,2026-02-02 14:22:11,[103536|0]
2168,2026-02-02 14:22:11,[103563|0]
2169,2026-02-02 14:22:11,[103610|0]
2170,2026-02-02 14:22:11,[103582|0]
2171,2026-02-02 14:22:11,[103300|0]
2172,2026-02-02 14:22:11,[103081|0]
2173,2026-02-02 14:22:11,[103056|0]
2174,2026-02-02 14:22:11,[103124|0]
2175,2026-02-02 14:22:11,[103235|0]
2176,2026-02-02 14:22:11,[103310|0]
2177,2026-02-02 14:22:11,[103331|0]
2178,2026-02-02 14:22:11,[103321|0]
2179,2026-02-02 14:22:11,[103290|0]
2180,2026-02-02 14:22:11,[103299|0]
2181,2026-02-02 14:22:11,[103344|0]
2182,2026-02-02 14:22:11,[103386|0]
2183,2026-02-02 14:22:11,[103428|0]
2184,2026-02-02 14:22:12,[103487|0]
2185,2026-02-02 14:22:12,[103517|0]
2186,2026-02-02 14:22:12,[103527|0]
2187,2026-02-02 14:22:12,[103535|0]
2188,2026-02-02 14:22:12,[103550|0]
2189,2026-02-02 14:22:12,[103564|0]
2190,2026-02-02 14:22:12,[103619|0]
2191,2026-02-02 14:22:12,[103572|0]
2192,2026-02-02 14:22:12,[103310|0]
2193,2026-02-02 14:22:12,[103103|0]
2194,2026-02-02 14:22:12,[103081|0]
2195,2026-02-02 14:22:12,[103168|0]
2196,2026-02-02 14:22:12,[103280|0]
2197,2026-02-02 14:22:12,[103400|0]
2198,2026-02-02 14:22:12,[103424|0]
2199,2026-02-02 14:22:12,[103361|0]
2200,2026-02-02 14:22:12,[103343|0]
2201,2026-02-02 14:22:12,[103355|0]
2202,2026-02-02 14:22:12,[103412|0]
2203,2026-02-02 14:22:12,[103453|0]
2204,2026-02-02 14:22:12,[103499|0]
2205,2026-02-02 14:22:12,[103529|0]
2206,2026-02-02 14:22:12,[103525|0]
2207,2026-02-02 14:22:12,[103557|0]
2208,2026-02-02 14:22:12,[103571|0]
2209,2026-02-02 14:22:13,[103597|0]
2210,2026-02-02 14:22:13,[103610|0]
2211,2026-02-02 14:22:13,[103620|0]
2212,2026-02-02 14:22:13,[103383|0]
2213,2026-02-02 14:22:13,[103118|0]
2214,2026-02-02 14:22:13,[103054|0]
2215,2026-02-02 14:22:13,[103146|0]
2216,2026-02-02 14:22:13,[103244|0]
2217,2026-02-02 14:22:13,[103328|0]
2218,2026-02-02 14:22:13,[103365|0]
2219,2026-02-02 14:22:13,[103368|0]
2220,2026-02-02 14:22:13,[103368|0]
2221,2026-02-02 14:22:13,[103339|0]
2222,2026-02-02 14:22:13,[103338|0]
2223,2026-02-02 14:22:13,[103372|0]
2224,2026-02-02 14:22:13,[103416|0]
2225,2026-02-02 14:22:13,[103453|0]
2226,2026-02-02 14:22:13,[103503|0]
2227,2026-02-02 14:22:13,[103520|0]
2228,2026-02-02 14:22:13,[103537|0]
2229,2026-02-02 14:22:13,[103537|0]
2230,2026-02-02 14:22:13,[103557|0]
2231,2026-02-02 14:22:13,[103563|0]
2232,2026-02-02 14:22:13,[103553|0]
2233,2026-02-02 14:22:14,[103323|0]
2234,2026-02-02 14:22:14,[103085|0]
2235,2026-02-02 14:22:14,[103063|0]
2236,2026-02-02 14:22:14,[103142|0]
2237,2026-02-02 14:22:14,[103202|0]
2238,2026-02-02 14:22:14,[103316|0]
2239,2026-02-02 14:22:14,[103356|0]
2240,2026-02-02 14:22:14,[103324|0]
2241,2026-02-02 14:22:14,[103319|0]
2242,2026-02-02 14:22:14,[103327|0]
2243,2026-02-02 14:22:14,[103330|0]
2244,2026-02-02 14:22:14,[103398|0]
2245,2026-02-02 14:22:14,[103454|0]
2246,2026-02-02 14:22:14,[103478|0]
2247,2026-02-02 14:22:14,[103496|0]
2248,2026-02-02 14:22:14,[103502|0]
2249,2026-02-02 14:22:14,[103494|0]
2250,2026-02-02 14:22:14,[103537|0]
2251,2026-02-02 14:22:14,[103389|0]
2252,2026-02-02 14:22:14,[103151|0]
2253,2026-02-02 14:22:14,[103061|0]
2254,2026-02-02 14:22:14,[103120|0]
2255,2026-02-02 14:22:14,[103196|0]
2256,2026-02-02 14:22:14,[103305|0]
2257,2026-02-02 14:22:14,[103369|0]
2258,2026-02-02 14:22:14,[103340|0]
2259,2026-02-02 14:22:15,[103321|0]
2260,2026-02-02 14:22:15,[103322|0]
2261,2026-02-02 14:22:15,[103343|0]
2262,2026-02-02 14:22:15,[103390|0]
2263,2026-02-02 14:22:15,[103445|0]
2264,2026-02-02 14:22:15,[103464|0]
2265,2026-02-02 14:22:15,[103482|0]
2266,2026-02-02 14:22:15,[103492|0]
2267,2026-02-02 14:22:15,[103475|0]
2268,2026-02-02 14:22:15,[103516|0]
2269,2026-02-02 14:22:15,[103463|0]
2270,2026-02-02 14:22:15,[103225|0]
2271,2026-02-02 14:22:15,[103081|0]
2272,2026-02-02 14:22:15,[103159|0]
2273,2026-02-02 14:22:15,[103278|0]
2274,2026-02-02 14:22:15,[103407|0]
2275,2026-02-02 14:22:15,[103513|0]
2276,2026-02-02 14:22:15,[103570|0]
2277,2026-02-02 14:22:15,[103507|0]
2278,2026-02-02 14:22:15,[103507|0]
2279,2026-02-02 14:22:15,[103603|0]
2280,2026-02-02 14:22:15,[103745|0]
2281,2026-02-02 14:22:15,[103814|0]
2282,2026-02-02 14:22:15,[103871|0]
2283,2026-02-02 14:22:15,[103940|0]
2284,2026-02-02 14:22:16,[104028|0]
2285,2026-02-02 14:22:16,[104088|0]
2286,2026-02-02 14:22:16,[104166|0]
2287,2026-02-02 14:22:16,[104210|0]
2288,2026-02-02 14:22:16,[104296|0]
2289,2026-02-02 14:22:16,[104312|0]
2290,2026-02-02 14:22:16,[104166|0]
2291,2026-02-02 14:22:16,[104028|0]
2292,2026-02-02 14:22:16,[104048|0]
2293,2026-02-02 14:22:16,[104062|0]
2294,2026-02-02 14:22:16,[104098|0]
2295,2026-02-02 14:22:16,[104086|0]
2296,2026-02-02 14:22:16,[104075|0]
2297,2026-02-02 14:22:16,[104083|0]
2298,2026-02-02 14:22:16,[104056|0]
2299,2026-02-02 14:22:16,[104050|0]
2300,2026-02-02 14:22:16,[104072|0]
2301,2026-02-02 14:22:16,[104066|0]
2302,2026-02-02 14:22:16,[104034|0]
2303,2026-02-02 14:22:16,[104040|0]
2304,2026-02-02 14:22:16,[104070|0]
2305,2026-02-02 14:22:16,[104052|0]
2306,2026-02-02 14:22:16,[104056|0]
2307,2026-02-02 14:22:16,[104078|0]
2308,2026-02-02 14:22:17,[104036|0]
2309,2026-02-02 14:22:17,[103952|0]
2310,2026-02-02 14:22:17,[103903|0]
2311,2026-02-02 14:22:17,[103915|0]
2312,2026-02-02 14:22:17,[103954|0]
2313,2026-02-02 14:22:17,[103983|0]
2314,2026-02-02 14:22:17,[103981|0]
2315,2026-02-02 14:22:17,[103989|0]
2316,2026-02-02 14:22:17,[103984|0]
2317,2026-02-02 14:22:17,[103997|0]
2318,2026-02-02 14:22:17,[103997|0]
2319,2026-02-02 14:22:17,[104008|0]
2320,2026-02-02 14:22:17,[104006|0]
2321,2026-02-02 14:22:17,[104012|0]
2322,2026-02-02 14:22:17,[104015|0]
2323,2026-02-02 14:22:17,[104025|0]
2324,2026-02-02 14:22:17,[104021|0]
2325,2026-02-02 14:22:17,[104023|0]
2326,2026-02-02 14:22:17,[104048|0]
2327,2026-02-02 14:22:17,[104060|0]
2328,2026-02-02 14:22:17,[104020|0]
2329,2026-02-02 14:22:17,[103928|0]
2330,2026-02-02 14:22:17,[103962|0]
2331,2026-02-02 14:22:17,[104002|0]
2332,2026-02-02 14:22:17,[104002|0]
2333,2026-02-02 14:22:17,[104025|0]
2334,2026-02-02 14:22:18,[104041|0]
2335,2026-02-02 14:22:18,[104041|0]
2336,2026-02-02 14:22:18,[104020|0]
2337,2026-02-02 14:22:18,[104016|0]
2338,2026-02-02 14:22:18,[104014|0]
2339,2026-02-02 14:22:18,[103983|0]
2340,2026-02-02 14:22:18,[103992|0]
2341,2026-02-02 14:22:18,[104013|0]
2342,2026-02-02 14:22:18,[104036|0]
2343,2026-02-02 14:22:18,[104017|0]
2344,2026-02-02 14:22:18,[104014|0]
2345,2026-02-02 14:22:18,[103994|0]
2346,2026-02-02 14:22:18,[103999|0]
2347,2026-02-02 14:22:18,[104014|0]
2348,2026-02-02 14:22:18,[104021|0]
2349,2026-02-02 14:22:18,[104016|0]
2350,2026-02-02 14:22:18,[104006|0]
2351,2026-02-02 14:22:18,[103894|0]
2352,2026-02-02 14:22:18,[103827|0]
2353,2026-02-02 14:22:18,[103853|0]
2354,2026-02-02 14:22:18,[103907|0]
2355,2026-02-02 14:22:18,[103937|0]
2356,2026-02-02 14:22:18,[103954|0]
2357,2026-02-02 14:22:18,[103937|0]
2358,2026-02-02 14:22:18,[103949|0]
2359,2026-02-02 14:22:19,[103967|0]
2360,2026-02-02 14:22:19,[103974|0]
2361,2026-02-02 14:22:19,[103963|0]
2362,2026-02-02 14:22:19,[103970|0]
2363,2026-02-02 14:22:19,[103953|0]
2364,2026-02-02 14:22:19,[103968|0]
2365,2026-02-02 14:22:19,[103959|0]
2366,2026-02-02 14:22:19,[103973|0]
2367,2026-02-02 14:22:19,[103991|0]
2368,2026-02-02 14:22:19,[103983|0]
2369,2026-02-02 14:22:19,[103954|0]
2370,2026-02-02 14:22:19,[103999|0]
2371,2026-02-02 14:22:19,[104001|0]
2372,2026-02-02 14:22:19,[103991|0]
2373,2026-02-02 14:22:19,[103981|0]
2374,2026-02-02 14:22:19,[103927|0]
2375,2026-02-02 14:22:19,[103803|0]
2376,2026-02-02 14:22:19,[103795|0]
2377,2026-02-02 14:22:19,[103814|0]
2378,2026-02-02 14:22:19,[103874|0]
2379,2026-02-02 14:22:19,[103913|0]
2380,2026-02-02 14:22:19,[103902|0]
2381,2026-02-02 14:22:19,[103884|0]
2382,2026-02-02 14:22:19,[103918|0]
2383,2026-02-02 14:22:20,[103919|0]
2384,2026-02-02 14:22:20,[103927|0]
2385,2026-02-02 14:22:20,[103945|0]
2386,2026-02-02 14:22:20,[103958|0]
2387,2026-02-02 14:22:20,[103934|0]
2388,2026-02-02 14:22:20,[103953|0]
2389,2026-02-02 14:22:20,[103955|0]
2390,2026-02-02 14:22:20,[103960|0]
2391,2026-02-02 14:22:20,[103954|0]
2392,2026-02-02 14:22:20,[103946|0]
2393,2026-02-02 14:22:20,[103920|0]
2394,2026-02-02 14:22:20,[103944|0]
2395,2026-02-02 14:22:20,[103954|0]
2396,2026-02-02 14:22:20,[103933|0]
2397,2026-02-02 14:22:20,[103835|0]
2398,2026-02-02 14:22:20,[103769|0]
2399,2026-02-02 14:22:20,[103779|0]
2400,2026-02-02 14:22:20,[103832|0]
2401,2026-02-02 14:22:20,[103874|0]
2402,2026-02-02 14:22:20,[103895|0]
2403,2026-02-02 14:22:20,[103899|0]
2404,2026-02-02 14:22:20,[103893|0]
2405,2026-02-02 14:22:20,[103874|0]
2406,2026-02-02 14:22:20,[103888|0]
2407,2026-02-02 14:22:20,[103886|0]
2408,2026-02-02 14:22:20,[103905|0]
2409,2026-02-02 14:22:21,[103901|0]
2410,2026-02-02 14:22:21,[103882|0]
2411,2026-02-02 14:22:21,[103872|0]
2412,2026-02-02 14:22:21,[103886|0]
2413,2026-02-02 14:22:21,[103887|0]
2414,2026-02-02 14:22:21,[103901|0]
2415,2026-02-02 14:22:21,[103877|0]
2416,2026-02-02 14:22:21,[103882|0]
2417,2026-02-02 14:22:21,[103883|0]
2418,2026-02-02 14:22:21,[103893|0]
2419,2026-02-02 14:22:21,[103889|0]
2420,2026-02-02 14:22:21,[103851|0]
2421,2026-02-02 14:22:21,[103775|0]
2422,2026-02-02 14:22:21,[103713|0]
2423,2026-02-02 14:22:21,[103731|0]
2424,2026-02-02 14:22:21,[103778|0]
2425,2026-02-02 14:22:21,[103792|0]
2426,2026-02-02 14:22:21,[103804|0]
2427,2026-02-02 14:22:21,[103814|0]
2428,2026-02-02 14:22:21,[103819|0]
2429,2026-02-02 14:22:21,[103801|0]
2430,2026-02-02 14:22:21,[103810|0]
2431,2026-02-02 14:22:21,[103828|0]
2432,2026-02-02 14:22:21,[103830|0]
2433,2026-02-02 14:22:21,[103840|0]
2434,2026-02-02 14:22:22,[103836|0]
2435,2026-02-02 14:22:22,[103829|0]
2436,2026-02-02 14:22:22,[103835|0]
2437,2026-02-02 14:22:22,[103850|0]
2438,2026-02-02 14:22:22,[103838|0]
2439,2026-02-02 14:22:22,[103852|0]
2440,2026-02-02 14:22:22,[103842|0]
2441,2026-02-02 14:22:22,[103852|0]
2442,2026-02-02 14:22:22,[103856|0]
2443,2026-02-02 14:22:22,[103834|0]
2444,2026-02-02 14:22:22,[103790|0]
2445,2026-02-02 14:22:22,[103742|0]
2446,2026-02-02 14:22:22,[103721|0]
2447,2026-02-02 14:22:22,[103755|0]
2448,2026-02-02 14:22:22,[103783|0]
2449,2026-02-02 14:22:22,[103788|0]
2450,2026-02-02 14:22:22,[103788|0]
2451,2026-02-02 14:22:22,[103795|0]
2452,2026-02-02 14:22:22,[103793|0]
2453,2026-02-02 14:22:22,[103755|0]
