Packet_Number,Timestamp,Data
1,2026-02-02 14:20:44,[87.17948717948718|43.223443223443226|208.7912087912088|38.827838827838825|-49.08424908424909]
2,2026-02-02 14:20:44,[-39.56043956043956|-62.27106227106227|-82.78388278388279|-173.62637362637363|-41.75824175824176]
3,2026-02-02 14:20:44,[-5.128205128205129|-155.3113553113553|-66.66666666666667|-48.35164835164835|-115.01831501831502]
4,2026-02-02 14:20:44,[-146.5201465201465|-190.47619047619048|-134.06593406593407|-71.06227106227107|-25.641025641025642]
5,2026-02-02 14:20:44,[-308.42490842490844|-205.86080586080587|-43.223443223443226|221.97802197802199|734.7985347985348]
6,2026-02-02 14:20:44,[731.8681318681319|124.54212454212454|-258.6080586080586|-403.6630036630037|-227.83882783882783]
7,2026-02-02 14:20:44,[-173.62637362637363|-5.86080586080586|-109.15750915750915|-226.37362637362637|-158.97435897435898]
8,2026-02-02 14:20:44,[-173.62637362637363|-173.62637362637363|-48.35164835164835|-132.6007326007326|-120.87912087912088]
9,2026-02-02 14:20:45,[-174.35897435897436|-241.75824175824175|-87.91208791208791|-54.94505494505494|-183.88278388278388]
10,2026-02-02 14:20:45,[-88.64468864468864|-72.52747252747253|23.44322344322344|-88.64468864468864|81.31868131868131]
11,2026-02-02 14:20:45,[78.3882783882784|-108.42490842490842|166.3003663003663|233.6996336996337|146.5201465201465]
12,2026-02-02 14:20:45,[112.82051282051282|101.0989010989011|98.9010989010989|-148.71794871794873|5.128205128205129]
13,2026-02-02 14:20:45,[-86.44688644688645|-267.3992673992674|-147.98534798534797|-189.74358974358975|-314.2857142857143]
14,2026-02-02 14:20:45,[-254.21245421245422|-273.992673992674|-235.89743589743588|-302.56410256410254|-277.65567765567766]
15,2026-02-02 14:20:45,[-263.003663003663|-284.98168498168496|-389.010989010989|-490.84249084249086|-153.1135531135531]
16,2026-02-02 14:20:45,[-265.9340659340659|-501.0989010989011|-261.53846153846155|-39.56043956043956|-294.5054945054945]
17,2026-02-02 14:20:45,[-287.1794871794872|-147.98534798534797|-194.13919413919413|-210.25641025641025|-188.2783882783883]
18,2026-02-02 14:20:45,[-169.96336996336996|-273.992673992674|-239.56043956043956|-317.94871794871796|-412.45421245421244]
19,2026-02-02 14:20:45,[-171.42857142857142|-236.63003663003664|-169.23076923076923|-345.7875457875458|-174.35897435897436]
20,2026-02-02 14:20:45,[-320.8791208791209|-264.46886446886447|-321.61172161172163|-405.12820512820514|-358.24175824175825]
21,2026-02-02 14:20:45,[-228.57142857142858|-235.16483516483515|-249.8168498168498|-314.2857142857143|-251.28205128205127]
22,2026-02-02 14:20:45,[-339.9267399267399|-213.1868131868132|-176.55677655677655|-311.35531135531136|-235.16483516483515]
23,2026-02-02 14:20:45,[-65.2014652014652|-187.54578754578753|-189.01098901098902|-228.57142857142858|-230.76923076923077]
24,2026-02-02 14:20:45,[-262.27106227106225|-263.003663003663|-201.46520146520146|-276.9230769230769|-235.16483516483515]
25,2026-02-02 14:20:45,[-216.11721611721612|-157.50915750915752|160.43956043956044|449.0842490842491|585.3479853479854]
26,2026-02-02 14:20:45,[115.75091575091575|-402.1978021978022|-306.2271062271062|-290.84249084249086|-249.8168498168498]
27,2026-02-02 14:20:45,[-213.1868131868132|-182.41758241758242|-129.67032967032966|-202.93040293040292|-154.57875457875457]
28,2026-02-02 14:20:45,[-248.35164835164835|-110.62271062271063|25.641025641025642|-120.87912087912088|3.663003663003663]
29,2026-02-02 14:20:45,[-43.223443223443226|-95.97069597069597|-32.967032967032964|-145.05494505494505|-135.53113553113553]
30,2026-02-02 14:20:45,[-75.45787545787546|-30.76923076923077|27.106227106227106|42.49084249084249|115.01831501831502]
31,2026-02-02 14:20:45,[114.28571428571429|209.52380952380952|205.86080586080587|158.97435897435898|245.42124542124543]
32,2026-02-02 14:20:45,[213.1868131868132|138.46153846153845|148.71794871794873|-8.791208791208792|-53.47985347985348]
33,2026-02-02 14:20:45,[-106.22710622710623|-136.26373626373626|-76.19047619047619|-146.5201465201465|-221.24542124542126]
34,2026-02-02 14:20:46,[-150.1831501831502|-134.7985347985348|-110.62271062271063|-200.73260073260073|-150.1831501831502]
35,2026-02-02 14:20:46,[-158.97435897435898|-179.48717948717947|-106.22710622710623|-235.16483516483515|-63.73626373626374]
36,2026-02-02 14:20:46,[-101.83150183150182|-123.07692307692308|-67.3992673992674|-153.1135531135531|-99.63369963369964]
37,2026-02-02 14:20:46,[-148.71794871794873|-87.17948717948718|-18.315018315018314|-142.85714285714286|-87.17948717948718]
38,2026-02-02 14:20:46,[-113.55311355311355|-145.78754578754578|-106.22710622710623|-90.10989010989012|-35.8974358974359]
39,2026-02-02 14:20:46,[-95.97069597069597|-120.87912087912088|-105.49450549450549|-167.76556776556777|-87.17948717948718]
40,2026-02-02 14:20:46,[-94.50549450549451|-80.58608058608058|10.989010989010989|-79.85347985347985|-122.34432234432235]
41,2026-02-02 14:20:46,[-150.1831501831502|-78.3882783882784|-50.54945054945055|-86.44688644688645|-98.9010989010989]
42,2026-02-02 14:20:46,[-85.71428571428571|-119.41391941391942|-115.01831501831502|-174.35897435897436|-141.3919413919414]
43,2026-02-02 14:20:46,[-93.77289377289377|-107.6923076923077|-88.64468864468864|-170.6959706959707|-21.978021978021978]
44,2026-02-02 14:20:46,[372.16117216117215|780.952380952381|711.3553113553113|25.641025641025642|-306.959706959707]
45,2026-02-02 14:20:46,[-188.2783882783883|-129.67032967032966|-86.44688644688645|-110.62271062271063|-17.582417582417584]
46,2026-02-02 14:20:46,[-97.43589743589743|-71.06227106227107|44.688644688644686|-22.71062271062271|-30.036630036630036]
47,2026-02-02 14:20:46,[84.98168498168498|-31.501831501831504|64.46886446886447|103.2967032967033|56.41025641025641]
48,2026-02-02 14:20:46,[40.29304029304029|-15.384615384615385|5.128205128205129|155.3113553113553|160.43956043956044]
49,2026-02-02 14:20:46,[65.93406593406593|138.46153846153845|246.8864468864469|144.32234432234432|205.86080586080587]
50,2026-02-02 14:20:46,[78.3882783882784|183.88278388278388|246.8864468864469|135.53113553113553|39.56043956043956]
51,2026-02-02 14:20:46,[219.04761904761904|166.3003663003663|122.34432234432235|-13.186813186813186|8.058608058608058]
52,2026-02-02 14:20:46,[-20.512820512820515|-157.50915750915752|-170.6959706959707|-204.3956043956044|-136.996336996337]
53,2026-02-02 14:20:46,[-135.53113553113553|-214.65201465201466|-123.07692307692308|-203.66300366300365|-175.0915750915751]
54,2026-02-02 14:20:46,[-84.24908424908425|-107.6923076923077|-117.94871794871794|-216.84981684981685|-216.11721611721612]
55,2026-02-02 14:20:46,[-175.0915750915751|-218.3150183150183|-159.7069597069597|-181.6849816849817|-123.80952380952381]
56,2026-02-02 14:20:46,[-158.97435897435898|-161.9047619047619|-109.15750915750915|-156.04395604395606|-164.83516483516485]
57,2026-02-02 14:20:46,[-204.3956043956044|-228.57142857142858|-98.9010989010989|-106.22710622710623|-106.22710622710623]
58,2026-02-02 14:20:46,[-135.53113553113553|-165.56776556776558|-97.43589743589743|-167.76556776556777|-135.53113553113553]
59,2026-02-02 14:20:46,[-136.26373626373626|-212.45421245421247|-105.49450549450549|-130.4029304029304|-142.12454212454213]
60,2026-02-02 14:20:47,[-202.93040293040292|-113.55311355311355|-39.56043956043956|-122.34432234432235|-112.08791208791209]
61,2026-02-02 14:20:47,[-145.05494505494505|-183.88278388278388|-153.1135531135531|-161.9047619047619|-147.25274725274724]
62,2026-02-02 14:20:47,[-167.76556776556777|-164.83516483516485|-156.04395604395606|-229.3040293040293|-5.128205128205129]
63,2026-02-02 14:20:47,[409.5238095238095|702.5641025641025|379.4871794871795|-146.5201465201465|-349.45054945054943]
64,2026-02-02 14:20:47,[-265.9340659340659|-181.6849816849817|-102.56410256410257|-161.9047619047619|-142.12454212454213]
65,2026-02-02 14:20:47,[-108.42490842490842|-115.01831501831502|-78.3882783882784|-113.55311355311355|-109.89010989010988]
66,2026-02-02 14:20:47,[-63.73626373626374|-81.31868131868131|-41.02564102564103|-79.12087912087912|-18.315018315018314]
67,2026-02-02 14:20:47,[-32.967032967032964|-71.06227106227107|65.2014652014652|18.315018315018314|53.47985347985348]
68,2026-02-02 14:20:47,[52.747252747252745|96.7032967032967|123.80952380952381|100.36630036630036|180.95238095238096]
69,2026-02-02 14:20:47,[178.02197802197801|116.48351648351648|135.53113553113553|136.996336996337|122.34432234432235]
70,2026-02-02 14:20:47,[44.688644688644686|-43.223443223443226|-72.52747252747253|-157.50915750915752|-111.35531135531136]
71,2026-02-02 14:20:47,[-169.23076923076923|-203.66300366300365|-170.6959706959707|-235.16483516483515|-179.48717948717947]
72,2026-02-02 14:20:47,[-178.02197802197801|-202.93040293040292|-131.13553113553112|-236.63003663003664|-157.50915750915752]
73,2026-02-02 14:20:47,[-126.73992673992674|-169.23076923076923|-131.13553113553112|-189.74358974358975|-166.3003663003663]
74,2026-02-02 14:20:47,[-157.50915750915752|-183.88278388278388|-126.00732600732601|-178.75457875457874|-144.32234432234432]
75,2026-02-02 14:20:47,[-147.25274725274724|-157.50915750915752|-150.1831501831502|-201.46520146520146|-125.27472527472527]
76,2026-02-02 14:20:47,[-136.996336996337|-167.76556776556777|-119.41391941391942|-159.7069597069597|-141.3919413919414]
77,2026-02-02 14:20:47,[-172.8937728937729|-157.50915750915752|-136.26373626373626|-160.43956043956044|-142.12454212454213]
78,2026-02-02 14:20:47,[-122.34432234432235|-131.13553113553112|-87.17948717948718|-180.21978021978023|-106.22710622710623]
79,2026-02-02 14:20:47,[-88.64468864468864|-126.00732600732601|-58.608058608058606|-94.50549450549451|-61.53846153846154]
80,2026-02-02 14:20:47,[-88.64468864468864|-179.48717948717947|-129.67032967032966|-115.01831501831502|-107.6923076923077]
81,2026-02-02 14:20:47,[-122.34432234432235|-167.76556776556777|-109.15750915750915|-182.41758241758242|-73.26007326007326]
82,2026-02-02 14:20:47,[255.67765567765568|635.8974358974359|693.7728937728938|109.15750915750915|-357.5091575091575]
83,2026-02-02 14:20:47,[-296.7032967032967|-191.94139194139194|-98.9010989010989|-112.08791208791209|-98.9010989010989]
84,2026-02-02 14:20:48,[-90.10989010989012|-115.01831501831502|-63.73626373626374|-76.92307692307692|-49.08424908424909]
85,2026-02-02 14:20:48,[-72.52747252747253|-115.01831501831502|16.84981684981685|-60.8058608058608|-47.61904761904762]
86,2026-02-02 14:20:48,[-12.454212454212454|-32.967032967032964|41.75824175824176|-27.106227106227106|68.86446886446886]
87,2026-02-02 14:20:48,[101.83150183150182|65.2014652014652|151.64835164835165|132.6007326007326|177.28937728937728]
88,2026-02-02 14:20:48,[160.43956043956044|121.6117216117216|186.8131868131868|136.26373626373626|119.41391941391942]
89,2026-02-02 14:20:48,[27.106227106227106|-33.6996336996337|-26.373626373626372|-113.55311355311355|-115.01831501831502]
90,2026-02-02 14:20:48,[-153.1135531135531|-223.44322344322345|-160.43956043956044|-190.47619047619048|-201.46520146520146]
91,2026-02-02 14:20:48,[-175.0915750915751|-216.11721611721612|-152.38095238095238|-170.6959706959707|-167.03296703296704]
92,2026-02-02 14:20:48,[-183.88278388278388|-201.46520146520146|-147.25274725274724|-156.7765567765568|-146.5201465201465]
93,2026-02-02 14:20:48,[-158.97435897435898|-205.86080586080587|-147.25274725274724|-189.74358974358975|-158.97435897435898]
94,2026-02-02 14:20:48,[-145.78754578754578|-170.6959706959707|-112.82051282051282|-200.0|-171.42857142857142]
95,2026-02-02 14:20:48,[-147.25274725274724|-176.55677655677655|-136.26373626373626|-201.46520146520146|-160.43956043956044]
96,2026-02-02 14:20:48,[-147.25274725274724|-180.95238095238096|-135.53113553113553|-180.95238095238096|-106.22710622710623]
97,2026-02-02 14:20:48,[-95.97069597069597|-145.05494505494505|-136.996336996337|-142.85714285714286|-74.72527472527473]
98,2026-02-02 14:20:48,[-90.10989010989012|-134.06593406593407|-111.35531135531136|-175.0915750915751|-134.06593406593407]
99,2026-02-02 14:20:48,[-143.5897435897436|-178.75457875457874|-95.97069597069597|-165.56776556776558|-166.3003663003663]
100,2026-02-02 14:20:48,[-149.45054945054946|10.989010989010989|381.68498168498166|661.5384615384615|415.38461538461536]
101,2026-02-02 14:20:48,[-173.62637362637363|-413.1868131868132|-265.2014652014652|-201.46520146520146|-100.36630036630036]
102,2026-02-02 14:20:48,[-109.15750915750915|-134.7985347985348|-85.71428571428571|-106.22710622710623|-82.78388278388279]
103,2026-02-02 14:20:48,[-75.45787545787546|-109.15750915750915|-38.827838827838825|-87.17948717948718|-60.8058608058608]
104,2026-02-02 14:20:48,[-41.75824175824176|-56.41025641025641|30.036630036630036|-30.036630036630036|5.128205128205129]
105,2026-02-02 14:20:48,[20.512820512820515|53.47985347985348|109.15750915750915|43.223443223443226|104.02930402930403]
106,2026-02-02 14:20:48,[185.34798534798534|139.9267399267399|183.88278388278388|131.13553113553112|136.996336996337]
107,2026-02-02 14:20:48,[115.75091575091575|45.42124542124542|45.42124542124542|-63.73626373626374|-109.15750915750915]
108,2026-02-02 14:20:48,[-144.32234432234432|-192.67399267399267|-123.07692307692308|-197.06959706959708|-164.83516483516485]
109,2026-02-02 14:20:49,[-203.66300366300365|-220.51282051282053|-155.3113553113553|-169.23076923076923|-154.57875457875457]
110,2026-02-02 14:20:49,[-195.6043956043956|-218.3150183150183|-117.94871794871794|-189.74358974358975|-159.7069597069597]
111,2026-02-02 14:20:49,[-126.73992673992674|-167.76556776556777|-156.04395604395606|-183.88278388278388|-150.1831501831502]
112,2026-02-02 14:20:49,[-156.04395604395606|-202.93040293040292|-132.6007326007326|-191.94139194139194|-154.57875457875457]
113,2026-02-02 14:20:49,[-152.38095238095238|-183.15018315018315|-119.41391941391942|-189.74358974358975|-173.62637362637363]
114,2026-02-02 14:20:49,[-158.24175824175825|-169.23076923076923|-126.73992673992674|-192.67399267399267|-167.76556776556777]
115,2026-02-02 14:20:49,[-101.83150183150182|-147.25274725274724|-115.75091575091575|-161.9047619047619|-169.23076923076923]
116,2026-02-02 14:20:49,[-126.00732600732601|-164.10256410256412|-109.15750915750915|-120.14652014652015|-78.3882783882784]
117,2026-02-02 14:20:49,[-73.99267399267399|-98.9010989010989|-115.01831501831502|-173.62637362637363|-122.34432234432235]
118,2026-02-02 14:20:49,[-148.71794871794873|-137.72893772893772|-112.82051282051282|-170.6959706959707|-191.94139194139194]
119,2026-02-02 14:20:49,[-95.97069597069597|135.53113553113553|624.9084249084249|684.981684981685|178.02197802197801]
120,2026-02-02 14:20:49,[-273.2600732600733|-357.5091575091575|-194.13919413919413|-120.14652014652015|-112.08791208791209]
121,2026-02-02 14:20:49,[-115.01831501831502|-148.71794871794873|-87.17948717948718|-101.0989010989011|-79.12087912087912]
122,2026-02-02 14:20:49,[-110.62271062271063|-68.13186813186813|-56.41025641025641|-79.12087912087912|-41.75824175824176]
123,2026-02-02 14:20:49,[-32.234432234432234|-71.06227106227107|17.582417582417584|-25.641025641025642|-6.593406593406593]
124,2026-02-02 14:20:49,[46.15384615384615|43.223443223443226|101.83150183150182|76.19047619047619|163.36996336996336]
125,2026-02-02 14:20:49,[180.21978021978023|131.13553113553112|158.24175824175825|136.996336996337|153.1135531135531]
126,2026-02-02 14:20:49,[123.80952380952381|43.956043956043956|14.652014652014651|-56.41025641025641|-90.10989010989012]
127,2026-02-02 14:20:49,[-120.14652014652015|-201.46520146520146|-130.4029304029304|-200.0|-202.93040293040292]
128,2026-02-02 14:20:49,[-182.41758241758242|-204.3956043956044|-160.43956043956044|-211.7216117216117|-183.88278388278388]
129,2026-02-02 14:20:49,[-125.27472527472527|-200.0|-145.78754578754578|-182.41758241758242|-164.83516483516485]
130,2026-02-02 14:20:49,[-157.50915750915752|-191.2087912087912|-131.13553113553112|-192.67399267399267|-164.83516483516485]
131,2026-02-02 14:20:49,[-179.48717948717947|-180.95238095238096|-119.41391941391942|-201.46520146520146|-154.57875457875457]
132,2026-02-02 14:20:49,[-152.38095238095238|-179.48717948717947|-134.06593406593407|-183.88278388278388|-150.1831501831502]
133,2026-02-02 14:20:50,[-147.25274725274724|-207.32600732600733|-136.996336996337|-144.32234432234432|-142.85714285714286]
134,2026-02-02 14:20:50,[-191.2087912087912|-172.16117216117217|-83.51648351648352|-150.1831501831502|-156.04395604395606]
135,2026-02-02 14:20:50,[-132.6007326007326|-101.0989010989011|-53.47985347985348|-109.15750915750915|-117.94871794871794]
136,2026-02-02 14:20:50,[-158.97435897435898|-192.67399267399267|-88.64468864468864|-173.62637362637363|-137.72893772893772]
137,2026-02-02 14:20:50,[-145.05494505494505|-156.7765567765568|-112.08791208791209|-21.978021978021978|333.3333333333333]
138,2026-02-02 14:20:50,[717.9487179487179|408.05860805860806|-50.54945054945055|-395.6043956043956|-299.6336996336996]
139,2026-02-02 14:20:50,[-192.67399267399267|-193.4065934065934|-40.29304029304029|-100.36630036630036|-105.49450549450549]
140,2026-02-02 14:20:50,[-109.89010989010988|-119.41391941391942|-56.41025641025641|-87.17948717948718|-62.27106227106227]
141,2026-02-02 14:20:50,[-47.61904761904762|-73.26007326007326|-3.663003663003663|-41.02564102564103|-8.791208791208792]
142,2026-02-02 14:20:50,[31.501831501831504|-9.523809523809524|51.282051282051285|52.747252747252745|63.73626373626374]
143,2026-02-02 14:20:50,[117.21611721611721|87.17948717948718|178.75457875457874|165.56776556776558|139.19413919413918]
144,2026-02-02 14:20:50,[156.04395604395606|150.1831501831502|160.43956043956044|52.014652014652015|29.304029304029303]
145,2026-02-02 14:20:50,[-8.791208791208792|-103.2967032967033|-115.01831501831502|-146.5201465201465|-150.1831501831502]
146,2026-02-02 14:20:50,[-166.3003663003663|-204.3956043956044|-172.16117216117217|-208.7912087912088|-169.96336996336996]
147,2026-02-02 14:20:50,[-161.17216117216117|-179.48717948717947|-142.85714285714286|-147.25274725274724|-169.23076923076923]
148,2026-02-02 14:20:50,[-120.87912087912088|-158.97435897435898|-134.06593406593407|-173.62637362637363|-149.45054945054946]
149,2026-02-02 14:20:50,[-149.45054945054946|-191.2087912087912|-120.87912087912088|-176.55677655677655|-145.05494505494505]
150,2026-02-02 14:20:50,[-113.55311355311355|-164.83516483516485|-156.04395604395606|-154.57875457875457|-142.85714285714286]
151,2026-02-02 14:20:50,[-148.71794871794873|-172.8937728937729|-132.6007326007326|-173.62637362637363|-126.00732600732601]
152,2026-02-02 14:20:50,[-134.7985347985348|-158.24175824175825|-106.22710622710623|-153.84615384615384|-136.996336996337]
153,2026-02-02 14:20:50,[-134.06593406593407|-144.32234432234432|-109.15750915750915|-157.50915750915752|-97.43589743589743]
154,2026-02-02 14:20:50,[-90.10989010989012|-145.78754578754578|-68.13186813186813|-75.45787545787546|-79.85347985347985]
155,2026-02-02 14:20:50,[-84.24908424908425|-147.98534798534797|-110.62271062271063|-147.98534798534797|-120.14652014652015]
156,2026-02-02 14:20:50,[-113.55311355311355|-126.73992673992674|-88.64468864468864|-178.02197802197801|-109.15750915750915]
157,2026-02-02 14:20:50,[117.21611721611721|497.43589743589746|777.2893772893773|239.56043956043956|-258.6080586080586]
158,2026-02-02 14:20:50,[-307.6923076923077|-204.3956043956044|-113.55311355311355|-107.6923076923077|-95.97069597069597]
159,2026-02-02 14:20:51,[-95.23809523809524|-157.50915750915752|-31.501831501831504|-73.99267399267399|-83.51648351648352]
160,2026-02-02 14:20:51,[-76.92307692307692|-75.45787545787546|16.117216117216117|-65.93406593406593|-40.29304029304029]
161,2026-02-02 14:20:51,[-25.641025641025642|-16.117216117216117|43.223443223443226|8.058608058608058|18.315018315018314]
162,2026-02-02 14:20:51,[52.747252747252745|100.36630036630036|128.2051282051282|101.83150183150182|128.2051282051282]
163,2026-02-02 14:20:51,[173.62637362637363|151.64835164835165|161.9047619047619|178.02197802197801|122.34432234432235]
164,2026-02-02 14:20:51,[65.93406593406593|-32.967032967032964|19.78021978021978|-78.3882783882784|-144.32234432234432]
165,2026-02-02 14:20:51,[-167.76556776556777|-204.3956043956044|-120.87912087912088|-203.66300366300365|-179.48717948717947]
166,2026-02-02 14:20:51,[-169.96336996336996|-195.6043956043956|-120.14652014652015|-176.55677655677655|-178.75457875457874]
167,2026-02-02 14:20:51,[-174.35897435897436|-173.62637362637363|-122.34432234432235|-180.95238095238096|-153.1135531135531]
168,2026-02-02 14:20:51,[-157.50915750915752|-180.21978021978023|-115.75091575091575|-164.10256410256412|-158.97435897435898]
169,2026-02-02 14:20:51,[-153.1135531135531|-182.41758241758242|-157.50915750915752|-165.56776556776558|-149.45054945054946]
170,2026-02-02 14:20:51,[-157.50915750915752|-164.10256410256412|-143.5897435897436|-173.62637362637363|-160.43956043956044]
171,2026-02-02 14:20:51,[-145.78754578754578|-173.62637362637363|-147.25274725274724|-148.71794871794873|-134.7985347985348]
172,2026-02-02 14:20:51,[-135.53113553113553|-202.93040293040292|-88.64468864468864|-126.73992673992674|-132.6007326007326]
173,2026-02-02 14:20:51,[-134.7985347985348|-160.43956043956044|-112.08791208791209|-158.24175824175825|-130.4029304029304]
174,2026-02-02 14:20:51,[-88.64468864468864|-164.10256410256412|-81.31868131868131|-101.83150183150182|-84.24908424908425]
175,2026-02-02 14:20:51,[-65.2014652014652|-142.85714285714286|-107.6923076923077|-157.50915750915752|-153.84615384615384]
176,2026-02-02 14:20:51,[-150.1831501831502|-145.78754578754578|-84.24908424908425|-176.55677655677655|-145.78754578754578]
177,2026-02-02 14:20:51,[52.014652014652015|372.8937728937729|768.4981684981685|441.75824175824175|-123.80952380952381]
178,2026-02-02 14:20:51,[-358.24175824175825|-296.7032967032967|-126.73992673992674|-117.94871794871794|-109.15750915750915]
179,2026-02-02 14:20:51,[-119.41391941391942|-132.6007326007326|-64.46886446886447|-88.64468864468864|-98.9010989010989]
180,2026-02-02 14:20:51,[-38.827838827838825|-87.17948717948718|-52.014652014652015|-49.81684981684982|-40.29304029304029]
181,2026-02-02 14:20:51,[-8.791208791208792|-30.036630036630036|27.106227106227106|3.663003663003663|-4.395604395604396]
182,2026-02-02 14:20:51,[78.3882783882784|43.223443223443226|97.43589743589743|112.08791208791209|147.98534798534797]
183,2026-02-02 14:20:51,[158.97435897435898|120.14652014652015|201.46520146520146|128.2051282051282|126.73992673992674]
184,2026-02-02 14:20:52,[106.95970695970696|-5.128205128205129|-25.641025641025642|-123.80952380952381|-126.73992673992674]
185,2026-02-02 14:20:52,[-131.13553113553112|-197.06959706959708|-159.7069597069597|-211.7216117216117|-205.12820512820514]
186,2026-02-02 14:20:52,[-170.6959706959707|-207.32600732600733|-148.71794871794873|-213.1868131868132|-211.7216117216117]
187,2026-02-02 14:20:52,[-134.7985347985348|-172.8937728937729|-157.50915750915752|-216.84981684981685|-167.76556776556777]
188,2026-02-02 14:20:52,[-147.25274725274724|-218.3150183150183|-145.78754578754578|-170.6959706959707|-169.96336996336996]
189,2026-02-02 14:20:52,[-150.1831501831502|-200.0|-125.27472527472527|-188.2783882783883|-172.16117216117217]
190,2026-02-02 14:20:52,[-144.32234432234432|-195.6043956043956|-152.38095238095238|-172.16117216117217|-189.01098901098902]
191,2026-02-02 14:20:52,[-180.95238095238096|-167.03296703296704|-126.00732600732601|-172.8937728937729|-132.6007326007326]
192,2026-02-02 14:20:52,[-136.26373626373626|-182.41758241758242|-124.54212454212454|-142.85714285714286|-157.50915750915752]
193,2026-02-02 14:20:52,[-145.05494505494505|-176.55677655677655|-112.08791208791209|-123.80952380952381|-118.68131868131869]
194,2026-02-02 14:20:52,[-93.77289377289377|-123.80952380952381|-52.014652014652015|-98.9010989010989|-120.87912087912088]
195,2026-02-02 14:20:52,[-123.80952380952381|-227.83882783882783|-97.43589743589743|-120.14652014652015|-140.65934065934067]
196,2026-02-02 14:20:52,[-113.55311355311355|-166.3003663003663|-123.80952380952381|-40.29304029304029|315.01831501831504]
197,2026-02-02 14:20:52,[756.0439560439561|462.27106227106225|-84.24908424908425|-347.25274725274727|-236.63003663003664]
198,2026-02-02 14:20:52,[-158.24175824175825|-153.1135531135531|-79.85347985347985|-97.43589743589743|-106.22710622710623]
199,2026-02-02 14:20:52,[-82.78388278388279|-102.56410256410257|-38.827838827838825|-75.45787545787546|-78.3882783882784]
200,2026-02-02 14:20:52,[-50.54945054945055|-53.47985347985348|-8.058608058608058|-55.67765567765568|-24.175824175824175]
201,2026-02-02 14:20:52,[13.91941391941392|-18.315018315018314|54.94505494505494|46.15384615384615|85.71428571428571]
202,2026-02-02 14:20:52,[115.01831501831502|88.64468864468864|158.97435897435898|120.87912087912088|178.75457875457874]
203,2026-02-02 14:20:52,[181.6849816849817|123.07692307692308|133.33333333333334|79.12087912087912|28.571428571428573]
204,2026-02-02 14:20:52,[-5.128205128205129|-117.94871794871794|-80.58608058608058|-152.38095238095238|-205.86080586080587]
205,2026-02-02 14:20:52,[-145.78754578754578|-217.58241758241758|-164.10256410256412|-214.65201465201466|-200.73260073260073]
206,2026-02-02 14:20:52,[-172.8937728937729|-196.33699633699635|-145.05494505494505|-191.94139194139194|-159.7069597069597]
207,2026-02-02 14:20:52,[-142.85714285714286|-193.4065934065934|-131.86813186813185|-167.76556776556777|-173.62637362637363]
208,2026-02-02 14:20:53,[-123.80952380952381|-183.15018315018315|-164.83516483516485|-216.11721611721612|-155.3113553113553]
209,2026-02-02 14:20:53,[-115.01831501831502|-173.62637362637363|-131.13553113553112|-200.0|-182.41758241758242]
210,2026-02-02 14:20:53,[-126.73992673992674|-171.42857142857142|-135.53113553113553|-188.2783882783883|-178.02197802197801]
211,2026-02-02 14:20:53,[-126.73992673992674|-180.95238095238096|-115.01831501831502|-145.78754578754578|-146.5201465201465]
212,2026-02-02 14:20:53,[-158.24175824175825|-166.3003663003663|-115.01831501831502|-160.43956043956044|-145.78754578754578]
213,2026-02-02 14:20:53,[-115.01831501831502|-166.3003663003663|-109.89010989010988|-120.87912087912088|-123.07692307692308]
214,2026-02-02 14:20:53,[-95.23809523809524|-146.5201465201465|-111.35531135531136|-111.35531135531136|-115.01831501831502]
215,2026-02-02 14:20:53,[-53.47985347985348|-90.10989010989012|-59.34065934065934|-101.83150183150182|-126.00732600732601]
216,2026-02-02 14:20:53,[-100.36630036630036|-147.25274725274724|-131.13553113553112|-132.6007326007326|-135.53113553113553]
217,2026-02-02 14:20:53,[-103.2967032967033|-157.50915750915752|-21.245421245421245|315.75091575091574|734.065934065934]
218,2026-02-02 14:20:53,[558.974358974359|-31.501831501831504|-308.42490842490844|-262.27106227106225|-192.67399267399267]
219,2026-02-02 14:20:53,[-119.41391941391942|-112.08791208791209|-63.00366300366301|-107.6923076923077|-87.17948717948718]
220,2026-02-02 14:20:53,[-64.46886446886447|-119.41391941391942|-38.827838827838825|-50.54945054945055|-64.46886446886447]
221,2026-02-02 14:20:53,[-76.19047619047619|-80.58608058608058|13.91941391941392|-14.652014652014651|-15.384615384615385]
222,2026-02-02 14:20:53,[19.047619047619047|-12.454212454212454|63.00366300366301|73.99267399267399|100.36630036630036]
223,2026-02-02 14:20:53,[128.2051282051282|134.7985347985348|181.6849816849817|157.50915750915752|163.36996336996336]
224,2026-02-02 14:20:53,[147.25274725274724|97.43589743589743|117.21611721611721|34.43223443223443|-41.75824175824176]
225,2026-02-02 14:20:53,[-31.501831501831504|-111.35531135531136|-122.34432234432235|-172.8937728937729|-201.46520146520146]
226,2026-02-02 14:20:53,[-154.57875457875457|-219.04761904761904|-173.62637362637363|-205.12820512820514|-182.41758241758242]
227,2026-02-02 14:20:53,[-172.16117216117217|-217.58241758241758|-167.76556776556777|-201.46520146520146|-180.21978021978023]
228,2026-02-02 14:20:53,[-107.6923076923077|-182.41758241758242|-150.91575091575092|-193.4065934065934|-220.51282051282053]
229,2026-02-02 14:20:53,[-111.35531135531136|-154.57875457875457|-153.84615384615384|-191.2087912087912|-169.96336996336996]
230,2026-02-02 14:20:53,[-180.95238095238096|-173.62637362637363|-103.2967032967033|-173.62637362637363|-197.8021978021978]
231,2026-02-02 14:20:53,[-141.3919413919414|-205.86080586080587|-126.73992673992674|-145.78754578754578|-173.62637362637363]
232,2026-02-02 14:20:53,[-153.84615384615384|-182.41758241758242|-84.98168498168498|-169.23076923076923|-190.47619047619048]
233,2026-02-02 14:20:53,[-123.80952380952381|-173.62637362637363|-131.86813186813185|-166.3003663003663|-160.43956043956044]
234,2026-02-02 14:20:54,[-101.83150183150182|-148.71794871794873|-110.62271062271063|-167.76556776556777|-134.06593406593407]
235,2026-02-02 14:20:54,[-79.85347985347985|-147.25274725274724|-109.15750915750915|-132.6007326007326|-137.72893772893772]
236,2026-02-02 14:20:54,[-88.64468864468864|-125.27472527472527|-84.98168498168498|-71.06227106227107|-62.27106227106227]
237,2026-02-02 14:20:54,[-62.27106227106227|-129.67032967032966|-88.64468864468864|-135.53113553113553|-143.5897435897436]
238,2026-02-02 14:20:54,[-94.50549450549451|-132.6007326007326|-108.42490842490842|-169.23076923076923|-169.23076923076923]
239,2026-02-02 14:20:54,[-43.956043956043956|256.4102564102564|700.3663003663004|626.3736263736264|72.52747252747253]
240,2026-02-02 14:20:54,[-309.15750915750914|-343.5897435897436|-150.1831501831502|-113.55311355311355|-109.15750915750915]
241,2026-02-02 14:20:54,[-76.19047619047619|-136.996336996337|-106.22710622710623|-80.58608058608058|-66.66666666666667]
242,2026-02-02 14:20:54,[-59.34065934065934|-100.36630036630036|-32.234432234432234|-41.75824175824176|-59.34065934065934]
243,2026-02-02 14:20:54,[-21.245421245421245|-48.35164835164835|28.571428571428573|-8.058608058608058|18.315018315018314]
244,2026-02-02 14:20:54,[69.59706959706959|28.571428571428573|103.2967032967033|123.07692307692308|145.78754578754578]
245,2026-02-02 14:20:54,[146.5201465201465|136.996336996337|192.67399267399267|156.04395604395606|128.2051282051282]
246,2026-02-02 14:20:54,[136.26373626373626|32.967032967032964|16.84981684981685|-81.31868131868131|-108.42490842490842]
247,2026-02-02 14:20:54,[-100.36630036630036|-183.15018315018315|-153.84615384615384|-190.47619047619048|-208.7912087912088]
248,2026-02-02 14:20:54,[-228.57142857142858|-211.7216117216117|-153.1135531135531|-202.1978021978022|-211.7216117216117]
249,2026-02-02 14:20:54,[-161.17216117216117|-211.7216117216117|-150.1831501831502|-166.3003663003663|-178.02197802197801]
250,2026-02-02 14:20:54,[-123.07692307692308|-183.88278388278388|-156.04395604395606|-160.43956043956044|-180.95238095238096]
251,2026-02-02 14:20:54,[-200.0|-160.43956043956044|-157.50915750915752|-188.2783882783883|-153.1135531135531]
252,2026-02-02 14:20:54,[-136.26373626373626|-215.3846153846154|-148.71794871794873|-158.24175824175825|-195.6043956043956]
253,2026-02-02 14:20:54,[-130.4029304029304|-166.3003663003663|-134.06593406593407|-167.76556776556777|-191.2087912087912]
254,2026-02-02 14:20:54,[-176.55677655677655|-153.1135531135531|-122.34432234432235|-166.3003663003663|-154.57875457875457]
255,2026-02-02 14:20:54,[-114.28571428571429|-165.56776556776558|-126.00732600732601|-133.33333333333334|-125.27472527472527]
256,2026-02-02 14:20:54,[-103.2967032967033|-169.23076923076923|-113.55311355311355|-129.67032967032966|-125.27472527472527]
257,2026-02-02 14:20:54,[-126.73992673992674|-88.64468864468864|-28.571428571428573|-94.50549450549451|-134.06593406593407]
258,2026-02-02 14:20:54,[-107.6923076923077|-150.1831501831502|-106.95970695970696|-131.13553113553112|-165.56776556776558]
259,2026-02-02 14:20:55,[-98.9010989010989|-142.85714285714286|-123.80952380952381|-50.54945054945055|274.72527472527474]
260,2026-02-02 14:20:55,[818.3150183150183|534.7985347985348|32.234432234432234|-358.24175824175825|-371.42857142857144]
261,2026-02-02 14:20:55,[-158.97435897435898|-108.42490842490842|-94.50549450549451|-113.55311355311355|-131.13553113553112]
262,2026-02-02 14:20:55,[-95.97069597069597|-73.26007326007326|-24.175824175824175|-73.99267399267399|-101.0989010989011]
263,2026-02-02 14:20:55,[-95.97069597069597|-87.17948717948718|3.663003663003663|-25.641025641025642|-50.54945054945055]
264,2026-02-02 14:20:55,[25.641025641025642|-21.245421245421245|35.16483516483517|62.27106227106227|73.99267399267399]
265,2026-02-02 14:20:55,[119.41391941391942|90.10989010989012|98.9010989010989|178.02197802197801|167.76556776556777]
266,2026-02-02 14:20:55,[151.64835164835165|134.7985347985348|116.48351648351648|120.87912087912088|46.88644688644688]
267,2026-02-02 14:20:55,[8.058608058608058|-113.55311355311355|-123.07692307692308|-156.04395604395606|-147.25274725274724]
268,2026-02-02 14:20:55,[-156.04395604395606|-227.1062271062271|-200.0|-209.52380952380952|-207.32600732600733]
269,2026-02-02 14:20:55,[-204.3956043956044|-230.76923076923077|-194.13919413919413|-201.46520146520146|-172.16117216117217]
270,2026-02-02 14:20:55,[-153.84615384615384|-219.04761904761904|-148.71794871794873|-153.1135531135531|-202.93040293040292]
271,2026-02-02 14:20:55,[-137.72893772893772|-158.97435897435898|-165.56776556776558|-172.16117216117217|-202.93040293040292]
272,2026-02-02 14:20:55,[-188.2783882783883|-182.41758241758242|-131.13553113553112|-173.62637362637363|-187.54578754578753]
273,2026-02-02 14:20:55,[-161.9047619047619|-200.73260073260073|-153.1135531135531|-169.23076923076923|-170.6959706959707]
274,2026-02-02 14:20:55,[-144.32234432234432|-200.0|-144.32234432234432|-166.3003663003663|-131.13553113553112]
275,2026-02-02 14:20:55,[-164.83516483516485|-177.28937728937728|-150.1831501831502|-153.1135531135531|-164.83516483516485]
276,2026-02-02 14:20:55,[-120.87912087912088|-166.3003663003663|-125.27472527472527|-119.41391941391942|-134.7985347985348]
277,2026-02-02 14:20:55,[-115.01831501831502|-147.25274725274724|-119.41391941391942|-120.87912087912088|-158.24175824175825]
278,2026-02-02 14:20:55,[-142.85714285714286|-123.80952380952381|-73.99267399267399|-60.8058608058608|-95.23809523809524]
279,2026-02-02 14:20:55,[-63.73626373626374|-129.67032967032966|-115.01831501831502|-134.06593406593407|-173.62637362637363]
280,2026-02-02 14:20:55,[-88.64468864468864|-117.94871794871794|-135.53113553113553|-158.97435897435898|-121.6117216117216]
281,2026-02-02 14:20:55,[103.2967032967033|561.9047619047619|768.4981684981685|243.95604395604394|-295.23809523809524]
282,2026-02-02 14:20:55,[-263.003663003663|-205.86080586080587|-126.00732600732601|-125.27472527472527|-123.80952380952381]
283,2026-02-02 14:20:56,[-49.08424908424909|-121.6117216117216|-95.97069597069597|-84.98168498168498|-110.62271062271063]
284,2026-02-02 14:20:56,[-73.26007326007326|-82.78388278388279|-53.47985347985348|-56.41025641025641|-63.73626373626374]
285,2026-02-02 14:20:56,[23.44322344322344|-38.827838827838825|-2.197802197802198|-7.326007326007326|29.304029304029303]
286,2026-02-02 14:20:56,[75.45787545787546|22.71062271062271|104.02930402930403|150.91575091575092|148.71794871794873]
287,2026-02-02 14:20:56,[145.78754578754578|136.996336996337|191.94139194139194|160.43956043956044|91.57509157509158]
288,2026-02-02 14:20:56,[122.34432234432235|6.593406593406593|-31.501831501831504|-81.31868131868131|-135.53113553113553]
289,2026-02-02 14:20:56,[-158.97435897435898|-192.67399267399267|-164.83516483516485|-179.48717948717947|-236.63003663003664]
290,2026-02-02 14:20:56,[-229.3040293040293|-200.0|-172.8937728937729|-176.55677655677655|-213.1868131868132]
291,2026-02-02 14:20:56,[-165.56776556776558|-164.83516483516485|-153.1135531135531|-158.97435897435898|-166.3003663003663]
292,2026-02-02 14:20:56,[-134.06593406593407|-202.93040293040292|-153.84615384615384|-145.78754578754578|-180.21978021978023]
293,2026-02-02 14:20:56,[-201.46520146520146|-177.28937728937728|-144.32234432234432|-164.83516483516485|-172.8937728937729]
294,2026-02-02 14:20:56,[-115.01831501831502|-178.02197802197801|-172.16117216117217|-166.3003663003663|-213.91941391941393]
295,2026-02-02 14:20:56,[-148.71794871794873|-120.87912087912088|-120.14652014652015|-167.76556776556777|-191.94139194139194]
296,2026-02-02 14:20:56,[-100.36630036630036|-156.04395604395606|-158.24175824175825|-158.97435897435898|-183.88278388278388]
297,2026-02-02 14:20:56,[-94.50549450549451|-145.78754578754578|-131.13553113553112|-125.27472527472527|-159.7069597069597]
298,2026-02-02 14:20:56,[-117.94871794871794|-160.43956043956044|-136.996336996337|-111.35531135531136|-110.62271062271063]
299,2026-02-02 14:20:56,[-120.87912087912088|-118.68131868131869|-65.2014652014652|-86.44688644688645|-109.15750915750915]
300,2026-02-02 14:20:56,[-76.92307692307692|-157.50915750915752|-133.33333333333334|-129.67032967032966|-150.1831501831502]
301,2026-02-02 14:20:56,[-123.80952380952381|-157.50915750915752|-123.80952380952381|-141.3919413919414|-12.454212454212454]
302,2026-02-02 14:20:56,[345.05494505494505|660.8058608058608|536.996336996337|-41.02564102564103|-430.7692307692308]
303,2026-02-02 14:20:56,[-242.49084249084248|-182.41758241758242|-107.6923076923077|-113.55311355311355|-104.02930402930403]
304,2026-02-02 14:20:56,[-83.51648351648352|-134.06593406593407|-60.8058608058608|-88.64468864468864|-97.43589743589743]
305,2026-02-02 14:20:56,[-28.571428571428573|-72.52747252747253|-41.02564102564103|-35.8974358974359|-50.54945054945055]
306,2026-02-02 14:20:56,[-8.058608058608058|-29.304029304029303|5.86080586080586|20.512820512820515|41.75824175824176]
307,2026-02-02 14:20:56,[69.59706959706959|76.92307692307692|125.27472527472527|137.72893772893772|116.48351648351648]
308,2026-02-02 14:20:56,[151.64835164835165|139.9267399267399|151.64835164835165|131.13553113553112|54.94505494505494]
309,2026-02-02 14:20:57,[40.29304029304029|-60.8058608058608|-18.315018315018314|-96.7032967032967|-182.41758241758242]
310,2026-02-02 14:20:57,[-158.97435897435898|-189.01098901098902|-161.9047619047619|-194.87179487179486|-205.12820512820514]
311,2026-02-02 14:20:57,[-247.61904761904762|-247.61904761904762|-147.25274725274724|-157.50915750915752|-216.11721611721612]
312,2026-02-02 14:20:57,[-157.50915750915752|-189.74358974358975|-153.1135531135531|-132.6007326007326|-183.15018315018315]
313,2026-02-02 14:20:57,[-143.5897435897436|-196.33699633699635|-123.07692307692308|-154.57875457875457|-197.06959706959708]
314,2026-02-02 14:20:57,[-180.95238095238096|-169.23076923076923|-132.6007326007326|-160.43956043956044|-167.76556776556777]
315,2026-02-02 14:20:57,[-131.13553113553112|-197.06959706959708|-134.7985347985348|-134.7985347985348|-158.97435897435898]
316,2026-02-02 14:20:57,[-118.68131868131869|-190.47619047619048|-161.9047619047619|-106.22710622710623|-161.9047619047619]
317,2026-02-02 14:20:57,[-177.28937728937728|-135.53113553113553|-112.82051282051282|-115.01831501831502|-142.12454212454213]
318,2026-02-02 14:20:57,[-64.46886446886447|-107.6923076923077|-88.64468864468864|-146.5201465201465|-136.996336996337]
319,2026-02-02 14:20:57,[-112.08791208791209|-149.45054945054946|-132.6007326007326|-131.13553113553112|-154.57875457875457]
320,2026-02-02 14:20:57,[-155.3113553113553|-150.1831501831502|49.81684981684982|503.2967032967033|639.5604395604396]
321,2026-02-02 14:20:57,[295.97069597069594|-244.6886446886447|-352.3809523809524|-244.6886446886447|-170.6959706959707]
322,2026-02-02 14:20:57,[-65.2014652014652|-126.73992673992674|-100.36630036630036|-112.08791208791209|-79.12087912087912]
323,2026-02-02 14:20:57,[-103.2967032967033|-87.91208791208791|-66.66666666666667|-52.014652014652015|-66.66666666666667]
324,2026-02-02 14:20:57,[-25.641025641025642|-41.02564102564103|-21.245421245421245|-19.78021978021978|-9.523809523809524]
325,2026-02-02 14:20:57,[44.688644688644686|6.593406593406593|67.3992673992674|101.83150183150182|104.76190476190476]
326,2026-02-02 14:20:57,[87.17948717948718|160.43956043956044|194.13919413919413|167.76556776556777|115.01831501831502]
327,2026-02-02 14:20:57,[207.32600732600733|109.15750915750915|44.688644688644686|-8.058608058608058|-95.97069597069597]
328,2026-02-02 14:20:57,[-71.06227106227107|-156.04395604395606|-167.03296703296704|-181.6849816849817|-195.6043956043956]
329,2026-02-02 14:20:57,[-205.86080586080587|-205.86080586080587|-202.93040293040292|-160.43956043956044|-205.86080586080587]
330,2026-02-02 14:20:57,[-145.78754578754578|-183.88278388278388|-174.35897435897436|-148.71794871794873|-182.41758241758242]
331,2026-02-02 14:20:57,[-134.06593406593407|-169.96336996336996|-156.04395604395606|-170.6959706959707|-192.67399267399267]
332,2026-02-02 14:20:57,[-164.10256410256412|-167.03296703296704|-167.76556776556777|-132.6007326007326|-160.43956043956044]
333,2026-02-02 14:20:57,[-135.53113553113553|-182.41758241758242|-168.4981684981685|-134.06593406593407|-172.16117216117217]
334,2026-02-02 14:20:58,[-141.3919413919414|-178.02197802197801|-152.38095238095238|-131.13553113553112|-188.2783882783883]
335,2026-02-02 14:20:58,[-195.6043956043956|-142.12454212454213|-121.6117216117216|-150.1831501831502|-189.01098901098902]
336,2026-02-02 14:20:58,[-124.54212454212454|-147.25274725274724|-115.01831501831502|-130.4029304029304|-141.3919413919414]
337,2026-02-02 14:20:58,[-115.01831501831502|-131.13553113553112|-129.67032967032966|-114.28571428571429|-109.15750915750915]
338,2026-02-02 14:20:58,[-123.07692307692308|-101.0989010989011|-80.58608058608058|-124.54212454212454|-166.3003663003663]
339,2026-02-02 14:20:58,[-120.87912087912088|-154.57875457875457|-101.83150183150182|-123.07692307692308|-164.83516483516485]
340,2026-02-02 14:20:58,[-148.71794871794873|-78.3882783882784|325.27472527472526|734.7985347985348|542.8571428571429]
341,2026-02-02 14:20:58,[-5.128205128205129|-313.5531135531136|-236.63003663003664|-147.25274725274724|-147.98534798534797]
342,2026-02-02 14:20:58,[-73.26007326007326|-133.33333333333334|-109.15750915750915|-73.99267399267399|-98.16849816849818]
343,2026-02-02 14:20:58,[-43.223443223443226|-106.22710622710623|-77.65567765567765|-67.3992673992674|-83.51648351648352]
344,2026-02-02 14:20:58,[-79.85347985347985|-78.3882783882784|-33.6996336996337|21.245421245421245|-37.362637362637365]
345,2026-02-02 14:20:58,[52.014652014652015|44.688644688644686|99.63369963369964|73.99267399267399|87.91208791208791]
346,2026-02-02 14:20:58,[156.7765567765568|145.78754578754578|180.95238095238096|162.63736263736263|134.06593406593407]
347,2026-02-02 14:20:58,[116.48351648351648|71.7948717948718|41.75824175824176|18.315018315018314|-78.3882783882784]
348,2026-02-02 14:20:58,[-78.3882783882784|-169.23076923076923|-195.6043956043956|-161.17216117216117|-189.01098901098902]
349,2026-02-02 14:20:58,[-167.03296703296704|-223.44322344322345|-172.16117216117217|-153.84615384615384|-219.04761904761904]
350,2026-02-02 14:20:58,[-227.83882783882783|-194.13919413919413|-195.6043956043956|-166.3003663003663|-165.56776556776558]
351,2026-02-02 14:20:58,[-135.53113553113553|-177.28937728937728|-188.2783882783883|-128.2051282051282|-158.24175824175825]
352,2026-02-02 14:20:58,[-131.86813186813185|-180.95238095238096|-189.01098901098902|-154.57875457875457|-155.3113553113553]
353,2026-02-02 14:20:58,[-179.48717948717947|-200.0|-161.17216117216117|-120.14652014652015|-171.42857142857142]
354,2026-02-02 14:20:58,[-134.7985347985348|-164.10256410256412|-167.76556776556777|-157.50915750915752|-147.98534798534797]
355,2026-02-02 14:20:58,[-120.87912087912088|-161.9047619047619|-170.6959706959707|-146.5201465201465|-121.6117216117216]
356,2026-02-02 14:20:58,[-165.56776556776558|-164.10256410256412|-169.96336996336996|-128.2051282051282|-120.87912087912088]
357,2026-02-02 14:20:58,[-94.50549450549451|-147.25274725274724|-111.35531135531136|-71.7948717948718|-124.54212454212454]
358,2026-02-02 14:20:59,[-37.362637362637365|-112.08791208791209|-144.32234432234432|-129.67032967032966|-193.4065934065934]
359,2026-02-02 14:20:59,[-160.43956043956044|-115.75091575091575|-115.01831501831502|-156.7765567765568|-192.67399267399267]
360,2026-02-02 14:20:59,[7.326007326007326|315.75091575091574|746.5201465201466|541.3919413919414|-41.75824175824176]
361,2026-02-02 14:20:59,[-285.7142857142857|-229.3040293040293|-191.2087912087912|-106.22710622710623|-108.42490842490842]
362,2026-02-02 14:20:59,[-131.13553113553112|-132.6007326007326|-87.17948717948718|-82.78388278388279|-117.94871794871794]
363,2026-02-02 14:20:59,[-54.94505494505494|-85.71428571428571|-79.85347985347985|-31.501831501831504|-51.282051282051285]
364,2026-02-02 14:20:59,[-8.058608058608058|-38.827838827838825|-5.128205128205129|16.84981684981685|-19.78021978021978]
365,2026-02-02 14:20:59,[4.395604395604396|63.73626373626374|116.48351648351648|150.91575091575092|108.42490842490842]
366,2026-02-02 14:20:59,[167.76556776556777|169.23076923076923|167.76556776556777|169.23076923076923|120.87912087912088]
367,2026-02-02 14:20:59,[109.15750915750915|16.117216117216117|-29.304029304029303|-76.92307692307692|-172.8937728937729]
368,2026-02-02 14:20:59,[-173.62637362637363|-170.6959706959707|-183.15018315018315|-179.48717948717947|-246.8864468864469]
369,2026-02-02 14:20:59,[-205.12820512820514|-195.6043956043956|-161.9047619047619|-164.83516483516485|-219.04761904761904]
370,2026-02-02 14:20:59,[-213.1868131868132|-199.26739926739927|-136.26373626373626|-125.27472527472527|-195.6043956043956]
371,2026-02-02 14:20:59,[-219.04761904761904|-172.16117216117217|-164.83516483516485|-125.27472527472527|-183.15018315018315]
372,2026-02-02 14:20:59,[-158.97435897435898|-156.04395604395606|-172.16117216117217|-156.04395604395606|-176.55677655677655]
373,2026-02-02 14:20:59,[-144.32234432234432|-167.03296703296704|-172.16117216117217|-153.1135531135531|-195.6043956043956]
374,2026-02-02 14:20:59,[-173.62637362637363|-135.53113553113553|-189.01098901098902|-156.04395604395606|-164.83516483516485]
375,2026-02-02 14:20:59,[-118.68131868131869|-144.32234432234432|-167.76556776556777|-115.01831501831502|-144.32234432234432]
376,2026-02-02 14:20:59,[-141.3919413919414|-154.57875457875457|-136.996336996337|-143.5897435897436|-126.73992673992674]
377,2026-02-02 14:20:59,[-164.83516483516485|-155.3113553113553|-126.73992673992674|-98.9010989010989|-156.04395604395606]
378,2026-02-02 14:20:59,[-84.24908424908425|-106.22710622710623|-109.15750915750915|-108.42490842490842|-122.34432234432235]
379,2026-02-02 14:20:59,[-52.014652014652015|-75.45787545787546|-68.13186813186813|-84.24908424908425|-157.50915750915752]
380,2026-02-02 14:20:59,[-166.3003663003663|-115.01831501831502|-114.28571428571429|-97.43589743589743|-169.23076923076923]
381,2026-02-02 14:20:59,[-100.36630036630036|-160.43956043956044|-90.10989010989012|239.56043956043956|595.6043956043956]
382,2026-02-02 14:20:59,[670.3296703296703|154.57875457875457|-309.8901098901099|-299.6336996336996|-219.04761904761904]
383,2026-02-02 14:20:59,[-147.98534798534797|-117.94871794871794|-123.07692307692308|-95.97069597069597|-84.98168498168498]
384,2026-02-02 14:21:00,[-35.8974358974359|-88.64468864468864|-94.50549450549451|-49.81684981684982|-90.10989010989012]
385,2026-02-02 14:21:00,[-6.593406593406593|-32.967032967032964|-49.08424908424909|5.128205128205129|-32.967032967032964]
386,2026-02-02 14:21:00,[5.86080586080586|38.827838827838825|27.106227106227106|75.45787545787546|81.31868131868131]
387,2026-02-02 14:21:00,[169.23076923076923|144.32234432234432|149.45054945054946|195.6043956043956|132.6007326007326]
388,2026-02-02 14:21:00,[186.8131868131868|166.3003663003663|126.73992673992674|75.45787545787546|-25.641025641025642]
389,2026-02-02 14:21:00,[-97.43589743589743|-107.6923076923077|-117.94871794871794|-147.25274725274724|-217.58241758241758]
390,2026-02-02 14:21:00,[-154.57875457875457|-179.48717948717947|-209.52380952380952|-180.95238095238096|-192.67399267399267]
391,2026-02-02 14:21:00,[-161.9047619047619|-157.50915750915752|-205.86080586080587|-155.3113553113553|-166.3003663003663]
392,2026-02-02 14:21:00,[-189.74358974358975|-177.28937728937728|-177.28937728937728|-142.85714285714286|-176.55677655677655]
393,2026-02-02 14:21:00,[-149.45054945054946|-117.94871794871794|-154.57875457875457|-134.06593406593407|-180.95238095238096]
394,2026-02-02 14:21:00,[-159.7069597069597|-160.43956043956044|-153.1135531135531|-123.80952380952381|-179.48717948717947]
395,2026-02-02 14:21:00,[-197.06959706959708|-175.0915750915751|-172.16117216117217|-134.06593406593407|-172.16117216117217]
396,2026-02-02 14:21:00,[-125.27472527472527|-167.76556776556777|-160.43956043956044|-110.62271062271063|-170.6959706959707]
397,2026-02-02 14:21:00,[-133.33333333333334|-135.53113553113553|-157.50915750915752|-135.53113553113553|-154.57875457875457]
398,2026-02-02 14:21:00,[-164.10256410256412|-124.54212454212454|-134.06593406593407|-103.2967032967033|-158.97435897435898]
399,2026-02-02 14:21:00,[-122.34432234432235|-119.41391941391942|-115.01831501831502|-103.2967032967033|-147.25274725274724]
400,2026-02-02 14:21:00,[-112.08791208791209|-133.33333333333334|-98.16849816849818|-107.6923076923077|-119.41391941391942]
401,2026-02-02 14:21:00,[-136.996336996337|-84.24908424908425|-62.27106227106227|-37.362637362637365|-108.42490842490842]
402,2026-02-02 14:21:00,[-87.17948717948718|-117.94871794871794|-109.15750915750915|-123.07692307692308|-149.45054945054946]
403,2026-02-02 14:21:00,[-97.43589743589743|-101.83150183150182|-155.3113553113553|-134.06593406593407|-71.06227106227107]
404,2026-02-02 14:21:00,[295.23809523809524|712.0879120879121|642.4908424908425|91.57509157509158|-330.4029304029304]
405,2026-02-02 14:21:00,[-238.82783882783883|-144.32234432234432|-120.87912087912088|-65.2014652014652|-124.54212454212454]
406,2026-02-02 14:21:00,[-87.91208791208791|-107.6923076923077|-101.83150183150182|-61.53846153846154|-90.10989010989012]
407,2026-02-02 14:21:00,[-102.56410256410257|-63.73626373626374|-71.06227106227107|-21.245421245421245|-40.29304029304029]
408,2026-02-02 14:21:00,[19.78021978021978|-15.384615384615385|-30.036630036630036|38.827838827838825|52.747252747252745]
409,2026-02-02 14:21:01,[76.92307692307692|45.42124542124542|100.36630036630036|182.41758241758242|147.25274725274724]
410,2026-02-02 14:21:01,[167.03296703296704|179.48717948717947|154.57875457875457|169.96336996336996|91.57509157509158]
411,2026-02-02 14:21:01,[75.45787545787546|-34.43223443223443|-73.99267399267399|-72.52747252747253|-181.6849816849817]
412,2026-02-02 14:21:01,[-147.25274725274724|-192.67399267399267|-238.0952380952381|-150.1831501831502|-202.93040293040292]
413,2026-02-02 14:21:01,[-229.3040293040293|-238.0952380952381|-227.83882783882783|-170.6959706959707|-208.7912087912088]
414,2026-02-02 14:21:01,[-173.62637362637363|-192.67399267399267|-169.23076923076923|-142.85714285714286|-204.3956043956044]
415,2026-02-02 14:21:01,[-153.1135531135531|-153.1135531135531|-188.2783882783883|-122.34432234432235|-202.93040293040292]
416,2026-02-02 14:21:01,[-208.05860805860806|-164.83516483516485|-194.13919413919413|-120.87912087912088|-173.62637362637363]
417,2026-02-02 14:21:01,[-169.23076923076923|-161.17216117216117|-179.48717948717947|-150.1831501831502|-169.23076923076923]
418,2026-02-02 14:21:01,[-129.67032967032966|-158.97435897435898|-173.62637362637363|-153.84615384615384|-167.76556776556777]
419,2026-02-02 14:21:01,[-194.13919413919413|-161.17216117216117|-165.56776556776558|-122.34432234432235|-164.83516483516485]
420,2026-02-02 14:21:01,[-99.63369963369964|-129.67032967032966|-157.50915750915752|-134.7985347985348|-167.76556776556777]
421,2026-02-02 14:21:01,[-112.08791208791209|-107.6923076923077|-145.78754578754578|-135.53113553113553|-131.13553113553112]
422,2026-02-02 14:21:01,[-134.7985347985348|-116.48351648351648|-142.85714285714286|-112.08791208791209|-121.6117216117216]
423,2026-02-02 14:21:01,[-84.98168498168498|-134.06593406593407|-131.13553113553112|-88.64468864468864|-132.6007326007326]
424,2026-02-02 14:21:01,[-98.9010989010989|-89.37728937728937|-113.55311355311355|-59.34065934065934|-116.48351648351648]
425,2026-02-02 14:21:01,[-135.53113553113553|-56.41025641025641|-37.362637362637365|-28.571428571428573|-88.64468864468864]
426,2026-02-02 14:21:01,[-90.10989010989012|-113.55311355311355|-115.01831501831502|-73.99267399267399|-148.71794871794873]
427,2026-02-02 14:21:01,[-88.64468864468864|-81.31868131868131|-150.1831501831502|-142.12454212454213|-32.234432234432234]
428,2026-02-02 14:21:01,[409.5238095238095|790.4761904761905|536.2637362637363|6.593406593406593|-324.54212454212455]
429,2026-02-02 14:21:01,[-192.67399267399267|-129.67032967032966|-120.14652014652015|-79.85347985347985|-125.27472527472527]
430,2026-02-02 14:21:01,[-72.52747252747253|-87.91208791208791|-78.3882783882784|-56.41025641025641|-109.89010989010988]
431,2026-02-02 14:21:01,[-96.7032967032967|-37.362637362637365|-64.46886446886447|-6.593406593406593|-53.47985347985348]
432,2026-02-02 14:21:01,[-12.454212454212454|-24.175824175824175|23.44322344322344|65.2014652014652|22.71062271062271]
433,2026-02-02 14:21:02,[79.12087912087912|115.01831501831502|134.06593406593407|169.23076923076923|124.54212454212454]
434,2026-02-02 14:21:02,[172.16117216117217|185.34798534798534|136.26373626373626|204.3956043956044|116.48351648351648]
435,2026-02-02 14:21:02,[53.47985347985348|-6.593406593406593|-40.29304029304029|-71.06227106227107|-182.41758241758242]
436,2026-02-02 14:21:02,[-164.83516483516485|-161.9047619047619|-191.2087912087912|-164.83516483516485|-252.74725274725276]
437,2026-02-02 14:21:02,[-252.74725274725276|-169.23076923076923|-206.5934065934066|-161.9047619047619|-212.45421245421247]
438,2026-02-02 14:21:02,[-200.73260073260073|-164.83516483516485|-189.74358974358975|-148.71794871794873|-180.21978021978023]
439,2026-02-02 14:21:02,[-170.6959706959707|-132.6007326007326|-208.7912087912088|-115.01831501831502|-164.83516483516485]
440,2026-02-02 14:21:02,[-216.11721611721612|-125.27472527472527|-170.6959706959707|-135.53113553113553|-199.26739926739927]
441,2026-02-02 14:21:02,[-132.6007326007326|-146.5201465201465|-204.3956043956044|-134.06593406593407|-153.1135531135531]
442,2026-02-02 14:21:02,[-149.45054945054946|-147.98534798534797|-179.48717948717947|-120.87912087912088|-167.03296703296704]
443,2026-02-02 14:21:02,[-150.1831501831502|-157.50915750915752|-146.5201465201465|-120.14652014652015|-167.03296703296704]
444,2026-02-02 14:21:02,[-117.94871794871794|-123.07692307692308|-164.83516483516485|-109.15750915750915|-145.78754578754578]
445,2026-02-02 14:21:02,[-109.15750915750915|-132.6007326007326|-157.50915750915752|-109.15750915750915|-145.05494505494505]
446,2026-02-02 14:21:02,[-158.97435897435898|-125.27472527472527|-132.6007326007326|-115.75091575091575|-167.76556776556777]
447,2026-02-02 14:21:02,[-87.17948717948718|-120.87912087912088|-117.94871794871794|-123.80952380952381|-120.14652014652015]
448,2026-02-02 14:21:02,[-86.44688644688645|-112.08791208791209|-142.85714285714286|-49.08424908424909|-66.66666666666667]
449,2026-02-02 14:21:02,[-120.87912087912088|-98.9010989010989|-76.19047619047619|-68.13186813186813|-156.04395604395606]
450,2026-02-02 14:21:02,[-118.68131868131869|-109.89010989010988|-148.71794871794873|-79.85347985347985|-116.48351648351648]
451,2026-02-02 14:21:02,[-132.6007326007326|-132.6007326007326|-12.454212454212454|349.45054945054943|578.021978021978]
452,2026-02-02 14:21:02,[434.43223443223445|-12.454212454212454|-343.5897435897436|-263.003663003663|-228.57142857142858]
453,2026-02-02 14:21:02,[-99.63369963369964|-95.97069597069597|-109.15750915750915|-39.56043956043956|-114.28571428571429]
454,2026-02-02 14:21:02,[-68.13186813186813|-48.35164835164835|-101.0989010989011|-60.8058608058608|-60.8058608058608]
455,2026-02-02 14:21:02,[-66.66666666666667|-33.6996336996337|-60.8058608058608|28.571428571428573|-12.454212454212454]
456,2026-02-02 14:21:02,[17.582417582417584|31.501831501831504|27.83882783882784|84.24908424908425|52.014652014652015]
457,2026-02-02 14:21:02,[104.76190476190476|172.16117216117217|134.7985347985348|186.08058608058607|139.9267399267399]
458,2026-02-02 14:21:02,[107.6923076923077|117.21611721611721|78.3882783882784|76.19047619047619|-30.76923076923077]
459,2026-02-02 14:21:03,[-79.85347985347985|-109.15750915750915|-123.07692307692308|-120.14652014652015|-178.75457875457874]
460,2026-02-02 14:21:03,[-180.95238095238096|-182.41758241758242|-201.46520146520146|-167.76556776556777|-204.3956043956044]
461,2026-02-02 14:21:03,[-217.58241758241758|-169.23076923076923|-213.1868131868132|-150.1831501831502|-195.6043956043956]
462,2026-02-02 14:21:03,[-150.1831501831502|-161.17216117216117|-142.85714285714286|-125.27472527472527|-157.50915750915752]
463,2026-02-02 14:21:03,[-112.08791208791209|-141.3919413919414|-182.41758241758242|-112.82051282051282|-167.76556776556777]
464,2026-02-02 14:21:03,[-207.32600732600733|-134.06593406593407|-175.0915750915751|-126.00732600732601|-159.7069597069597]
465,2026-02-02 14:21:03,[-145.78754578754578|-122.34432234432235|-153.1135531135531|-126.73992673992674|-159.7069597069597]
466,2026-02-02 14:21:03,[-103.2967032967033|-132.6007326007326|-183.88278388278388|-109.89010989010988|-156.7765567765568]
467,2026-02-02 14:21:03,[-180.95238095238096|-97.43589743589743|-145.78754578754578|-107.6923076923077|-145.05494505494505]
468,2026-02-02 14:21:03,[-132.6007326007326|-101.0989010989011|-157.50915750915752|-101.83150183150182|-145.05494505494505]
469,2026-02-02 14:21:03,[-98.9010989010989|-102.56410256410257|-141.3919413919414|-122.34432234432235|-141.3919413919414]
470,2026-02-02 14:21:03,[-142.85714285714286|-54.21245421245421|-103.2967032967033|-40.29304029304029|-99.63369963369964]
471,2026-02-02 14:21:03,[-96.7032967032967|-113.55311355311355|-132.6007326007326|-125.27472527472527|-120.87912087912088]
472,2026-02-02 14:21:03,[-123.07692307692308|-154.57875457875457|-166.3003663003663|-66.66666666666667|30.76923076923077]
473,2026-02-02 14:21:03,[279.1208791208791|497.43589743589746|214.65201465201466|-130.4029304029304|-342.12454212454213]
474,2026-02-02 14:21:03,[-249.08424908424908|-188.2783882783883|-150.91575091575092|-90.10989010989012|-94.50549450549451]
475,2026-02-02 14:21:03,[-103.2967032967033|-55.67765567765568|-112.08791208791209|-71.06227106227107|-110.62271062271063]
476,2026-02-02 14:21:03,[-42.49084249084249|-63.73626373626374|-107.6923076923077|-47.61904761904762|-72.52747252747253]
477,2026-02-02 14:21:03,[-2.197802197802198|-31.501831501831504|-73.26007326007326|13.91941391941392|6.593406593406593]
478,2026-02-02 14:21:03,[12.454212454212454|66.66666666666667|35.16483516483517|87.17948717948718|78.3882783882784]
479,2026-02-02 14:21:03,[52.747252747252745|68.13186813186813|52.014652014652015|75.45787545787546|5.128205128205129]
480,2026-02-02 14:21:03,[-32.967032967032964|-43.223443223443226|-122.34432234432235|-145.78754578754578|-188.2783882783883]
481,2026-02-02 14:21:03,[-143.5897435897436|-148.71794871794873|-220.51282051282053|-191.2087912087912|-228.57142857142858]
482,2026-02-02 14:21:03,[-223.44322344322345|-166.3003663003663|-208.7912087912088|-120.87912087912088|-180.95238095238096]
483,2026-02-02 14:21:03,[-167.76556776556777|-146.5201465201465|-178.75457875457874|-111.35531135531136|-172.16117216117217]
484,2026-02-02 14:21:04,[-193.4065934065934|-109.15750915750915|-147.98534798534797|-160.43956043956044|-173.62637362637363]
485,2026-02-02 14:21:04,[-208.7912087912088|-117.94871794871794|-164.83516483516485|-126.73992673992674|-156.04395604395606]
486,2026-02-02 14:21:04,[-157.50915750915752|-95.23809523809524|-169.96336996336996|-149.45054945054946|-179.48717948717947]
487,2026-02-02 14:21:04,[-123.80952380952381|-110.62271062271063|-120.14652014652015|-131.13553113553112|-142.85714285714286]
488,2026-02-02 14:21:04,[-173.62637362637363|-106.22710622710623|-145.78754578754578|-97.43589743589743|-167.76556776556777]
489,2026-02-02 14:21:04,[-113.55311355311355|-109.15750915750915|-136.996336996337|-79.85347985347985|-73.99267399267399]
490,2026-02-02 14:21:04,[-82.78388278388279|-71.7948717948718|-136.996336996337|-97.43589743589743|-134.7985347985348]
491,2026-02-02 14:21:04,[-157.50915750915752|-126.73992673992674|-134.06593406593407|-72.52747252747253|-147.25274725274724]
492,2026-02-02 14:21:04,[-97.43589743589743|13.91941391941392|202.1978021978022|474.72527472527474|252.74725274725276]
493,2026-02-02 14:21:04,[-41.02564102564103|-246.8864468864469|-268.13186813186815|-192.67399267399267|-107.6923076923077]
494,2026-02-02 14:21:04,[-108.42490842490842|-78.3882783882784|-119.41391941391942|-12.454212454212454|-101.83150183150182]
495,2026-02-02 14:21:04,[-66.66666666666667|-29.304029304029303|-61.53846153846154|-21.245421245421245|-60.8058608058608]
496,2026-02-02 14:21:04,[-32.967032967032964|18.315018315018314|-35.8974358974359|12.454212454212454|-29.304029304029303]
497,2026-02-02 14:21:04,[-41.75824175824176|72.52747252747253|38.827838827838825|90.10989010989012|110.62271062271063]
498,2026-02-02 14:21:04,[121.6117216117216|125.27472527472527|134.06593406593407|148.71794871794873|88.64468864468864]
499,2026-02-02 14:21:04,[85.71428571428571|60.8058608058608|-32.967032967032964|-6.593406593406593|-98.9010989010989]
500,2026-02-02 14:21:04,[-169.23076923076923|-96.7032967032967|-141.3919413919414|-150.1831501831502|-180.95238095238096]
501,2026-02-02 14:21:04,[-145.78754578754578|-135.53113553113553|-160.43956043956044|-147.98534798534797|-173.62637362637363]
502,2026-02-02 14:21:04,[-147.25274725274724|-107.6923076923077|-172.8937728937729|-118.68131868131869|-130.4029304029304]
503,2026-02-02 14:21:04,[-215.3846153846154|-84.24908424908425|-131.86813186813185|-96.7032967032967|-159.7069597069597]
504,2026-02-02 14:21:04,[-150.1831501831502|-109.15750915750915|-150.1831501831502|-103.2967032967033|-132.6007326007326]
505,2026-02-02 14:21:04,[-147.25274725274724|-113.55311355311355|-135.53113553113553|-103.2967032967033|-131.13553113553112]
506,2026-02-02 14:21:04,[-195.6043956043956|-97.43589743589743|-164.83516483516485|-101.83150183150182|-127.47252747252747]
507,2026-02-02 14:21:04,[-114.28571428571429|-96.7032967032967|-157.50915750915752|-95.97069597069597|-123.07692307692308]
508,2026-02-02 14:21:05,[-123.07692307692308|-95.97069597069597|-145.78754578754578|-123.80952380952381|-115.01831501831502]
509,2026-02-02 14:21:05,[-154.57875457875457|-110.62271062271063|-142.12454212454213|-78.3882783882784|-135.53113553113553]
510,2026-02-02 14:21:05,[-106.22710622710623|-73.26007326007326|-134.06593406593407|-95.97069597069597|-101.83150183150182]
511,2026-02-02 14:21:05,[-131.86813186813185|-89.37728937728937|-100.36630036630036|-32.967032967032964|-84.98168498168498]
512,2026-02-02 14:21:05,[-132.6007326007326|-63.73626373626374|-131.13553113553112|-75.45787545787546|-109.15750915750915]
513,2026-02-02 14:21:05,[-120.87912087912088|-104.02930402930403|-134.06593406593407|-109.89010989010988|-106.22710622710623]
514,2026-02-02 14:21:05,[76.92307692307692|473.992673992674|558.2417582417582|266.6666666666667|-173.62637362637363]
515,2026-02-02 14:21:05,[-349.45054945054943|-153.1135531135531|-160.43956043956044|-76.92307692307692|-79.85347985347985]
516,2026-02-02 14:21:05,[-106.22710622710623|-82.78388278388279|-118.68131868131869|-74.72527472527473|-84.24908424908425]
517,2026-02-02 14:21:05,[-79.85347985347985|-41.75824175824176|-97.43589743589743|-38.095238095238095|-54.94505494505494]
518,2026-02-02 14:21:05,[-79.85347985347985|-13.91941391941392|-49.08424908424909|19.78021978021978|13.91941391941392]
519,2026-02-02 14:21:05,[28.571428571428573|57.875457875457876|27.106227106227106|123.80952380952381|100.36630036630036]
520,2026-02-02 14:21:05,[122.34432234432235|147.25274725274724|88.64468864468864|134.06593406593407|97.43589743589743]
521,2026-02-02 14:21:05,[30.036630036630036|18.315018315018314|-60.8058608058608|-56.41025641025641|-125.27472527472527]
522,2026-02-02 14:21:05,[-145.78754578754578|-150.1831501831502|-200.73260073260073|-159.7069597069597|-153.84615384615384]
523,2026-02-02 14:21:05,[-175.0915750915751|-156.7765567765568|-211.7216117216117|-156.04395604395606|-178.02197802197801]
524,2026-02-02 14:21:05,[-238.0952380952381|-157.50915750915752|-190.47619047619048|-131.13553113553112|-147.25274725274724]
525,2026-02-02 14:21:05,[-172.16117216117217|-136.26373626373626|-167.76556776556777|-116.48351648351648|-152.38095238095238]
526,2026-02-02 14:21:05,[-136.996336996337|-118.68131868131869|-174.35897435897436|-142.85714285714286|-156.04395604395606]
527,2026-02-02 14:21:05,[-203.66300366300365|-108.42490842490842|-166.3003663003663|-141.3919413919414|-175.0915750915751]
528,2026-02-02 14:21:05,[-142.85714285714286|-98.9010989010989|-166.3003663003663|-130.4029304029304|-146.5201465201465]
529,2026-02-02 14:21:05,[-147.25274725274724|-97.43589743589743|-161.17216117216117|-132.6007326007326|-158.24175824175825]
530,2026-02-02 14:21:05,[-204.3956043956044|-110.62271062271063|-124.54212454212454|-98.16849816849818|-136.996336996337]
531,2026-02-02 14:21:05,[-188.2783882783883|-72.52747252747253|-134.06593406593407|-85.71428571428571|-124.54212454212454]
532,2026-02-02 14:21:05,[-161.17216117216117|-101.83150183150182|-126.73992673992674|-75.45787545787546|-101.83150183150182]
533,2026-02-02 14:21:05,[-194.13919413919413|-104.02930402930403|-119.41391941391942|-52.747252747252745|-63.73626373626374]
534,2026-02-02 14:21:06,[-72.52747252747253|-62.27106227106227|-126.00732600732601|-88.64468864468864|-112.08791208791209]
535,2026-02-02 14:21:06,[-123.07692307692308|-103.2967032967033|-156.04395604395606|-98.9010989010989|-142.85714285714286]
536,2026-02-02 14:21:06,[-183.15018315018315|-8.791208791208792|252.01465201465203|630.7692307692307|534.065934065934]
537,2026-02-02 14:21:06,[57.875457875457876|-241.75824175824175|-254.21245421245422|-119.41391941391942|-106.95970695970696]
538,2026-02-02 14:21:06,[-134.7985347985348|-98.9010989010989|-125.27472527472527|-49.81684981684982|-95.23809523809524]
539,2026-02-02 14:21:06,[-137.72893772893772|-60.8058608058608|-106.22710622710623|-30.76923076923077|-63.00366300366301]
540,2026-02-02 14:21:06,[-70.32967032967034|-49.08424908424909|-73.26007326007326|-3.663003663003663|5.128205128205129]
541,2026-02-02 14:21:06,[-2.197802197802198|39.56043956043956|5.86080586080586|76.19047619047619|79.85347985347985]
542,2026-02-02 14:21:06,[68.13186813186813|170.6959706959707|132.6007326007326|172.16117216117217|126.00732600732601]
543,2026-02-02 14:21:06,[116.48351648351648|134.06593406593407|37.362637362637365|46.15384615384615|-40.29304029304029]
544,2026-02-02 14:21:06,[-130.4029304029304|-115.01831501831502|-156.04395604395606|-153.1135531135531|-191.94139194139194]
545,2026-02-02 14:21:06,[-252.74725274725276|-178.75457875457874|-208.7912087912088|-180.21978021978023|-177.28937728937728]
546,2026-02-02 14:21:06,[-191.2087912087912|-158.97435897435898|-213.1868131868132|-150.1831501831502|-155.3113553113553]
547,2026-02-02 14:21:06,[-194.13919413919413|-144.32234432234432|-188.2783882783883|-134.7985347985348|-153.1135531135531]
548,2026-02-02 14:21:06,[-239.56043956043956|-131.13553113553112|-178.02197802197801|-142.12454212454213|-147.25274725274724]
549,2026-02-02 14:21:06,[-158.97435897435898|-142.85714285714286|-178.02197802197801|-166.3003663003663|-170.6959706959707]
550,2026-02-02 14:21:06,[-160.43956043956044|-111.35531135531136|-172.16117216117217|-142.85714285714286|-148.71794871794873]
551,2026-02-02 14:21:06,[-204.3956043956044|-112.08791208791209|-156.04395604395606|-128.2051282051282|-145.78754578754578]
552,2026-02-02 14:21:06,[-178.02197802197801|-106.22710622710623|-166.3003663003663|-98.9010989010989|-172.16117216117217]
553,2026-02-02 14:21:06,[-145.05494505494505|-79.85347985347985|-134.06593406593407|-97.43589743589743|-135.53113553113553]
554,2026-02-02 14:21:06,[-189.74358974358975|-90.10989010989012|-156.04395604395606|-126.73992673992674|-136.996336996337]
555,2026-02-02 14:21:06,[-117.94871794871794|-63.73626373626374|-128.2051282051282|-105.49450549450549|-107.6923076923077]
556,2026-02-02 14:21:06,[-122.34432234432235|-43.223443223443226|-87.17948717948718|-59.34065934065934|-75.45787545787546]
557,2026-02-02 14:21:06,[-131.13553113553112|-85.71428571428571|-132.6007326007326|-107.6923076923077|-87.17948717948718]
558,2026-02-02 14:21:06,[-122.34432234432235|-98.16849816849818|-135.53113553113553|-98.9010989010989|-131.86813186813185]
559,2026-02-02 14:21:07,[-13.91941391941392|448.35164835164835|661.5384615384615|440.2930402930403|-75.45787545787546]
560,2026-02-02 14:21:07,[-336.2637362637363|-153.1135531135531|-191.94139194139194|-62.27106227106227|-88.64468864468864]
561,2026-02-02 14:21:07,[-119.41391941391942|-56.41025641025641|-119.41391941391942|-84.24908424908425|-63.73626373626374]
562,2026-02-02 14:21:07,[-79.12087912087912|-52.014652014652015|-113.55311355311355|-9.523809523809524|-47.61904761904762]
563,2026-02-02 14:21:07,[-109.89010989010988|-2.93040293040293|-35.8974358974359|22.71062271062271|42.49084249084249]
564,2026-02-02 14:21:07,[10.989010989010989|64.46886446886447|72.52747252747253|136.996336996337|134.7985347985348]
565,2026-02-02 14:21:07,[147.25274725274724|205.86080586080587|131.13553113553112|145.05494505494505|186.8131868131868]
566,2026-02-02 14:21:07,[60.8058608058608|57.875457875457876|-16.117216117216117|-35.8974358974359|-99.63369963369964]
567,2026-02-02 14:21:07,[-170.6959706959707|-146.5201465201465|-206.5934065934066|-160.43956043956044|-191.94139194139194]
568,2026-02-02 14:21:07,[-213.1868131868132|-148.71794871794873|-179.48717948717947|-191.94139194139194|-170.6959706959707]
569,2026-02-02 14:21:07,[-255.67765567765568|-146.5201465201465|-196.33699633699635|-154.57875457875457|-169.23076923076923]
570,2026-02-02 14:21:07,[-205.86080586080587|-123.80952380952381|-161.9047619047619|-144.32234432234432|-161.17216117216117]
571,2026-02-02 14:21:07,[-176.55677655677655|-136.996336996337|-182.41758241758242|-129.67032967032966|-153.1135531135531]
572,2026-02-02 14:21:07,[-225.64102564102564|-125.27472527472527|-208.7912087912088|-170.6959706959707|-132.6007326007326]
573,2026-02-02 14:21:07,[-160.43956043956044|-123.07692307692308|-182.41758241758242|-136.996336996337|-123.80952380952381]
574,2026-02-02 14:21:07,[-167.03296703296704|-134.06593406593407|-177.28937728937728|-110.62271062271063|-123.80952380952381]
575,2026-02-02 14:21:07,[-216.11721611721612|-109.15750915750915|-156.7765567765568|-117.94871794871794|-115.01831501831502]
576,2026-02-02 14:21:07,[-123.80952380952381|-89.37728937728937|-148.71794871794873|-131.13553113553112|-118.68131868131869]
577,2026-02-02 14:21:07,[-127.47252747252747|-97.43589743589743|-136.996336996337|-88.64468864468864|-98.16849816849818]
578,2026-02-02 14:21:07,[-172.8937728937729|-102.56410256410257|-112.08791208791209|-40.29304029304029|-50.54945054945055]
579,2026-02-02 14:21:07,[-82.78388278388279|-49.08424908424909|-109.15750915750915|-123.80952380952381|-56.41025641025641]
580,2026-02-02 14:21:07,[-113.55311355311355|-82.78388278388279|-130.4029304029304|-133.33333333333334|-113.55311355311355]
581,2026-02-02 14:21:07,[-196.33699633699635|-31.501831501831504|198.53479853479854|661.5384615384615|650.5494505494505]
582,2026-02-02 14:21:07,[103.2967032967033|-249.8168498168498|-282.7838827838828|-153.1135531135531|-111.35531135531136]
583,2026-02-02 14:21:07,[-122.34432234432235|-65.2014652014652|-120.14652014652015|-80.58608058608058|-70.32967032967034]
584,2026-02-02 14:21:07,[-144.32234432234432|-40.29304029304029|-85.71428571428571|-59.34065934065934|-47.61904761904762]
585,2026-02-02 14:21:08,[-60.8058608058608|-5.128205128205129|-28.571428571428573|-8.058608058608058|-13.186813186813186]
586,2026-02-02 14:21:08,[8.058608058608058|73.99267399267399|54.94505494505494|80.58608058608058|53.47985347985348]
587,2026-02-02 14:21:08,[116.48351648351648|208.7912087912088|154.57875457875457|170.6959706959707|163.36996336996336]
588,2026-02-02 14:21:08,[137.72893772893772|175.0915750915751|79.85347985347985|-7.326007326007326|-12.454212454212454]
589,2026-02-02 14:21:08,[-113.55311355311355|-77.65567765567765|-157.50915750915752|-158.97435897435898|-167.03296703296704]
590,2026-02-02 14:21:08,[-234.43223443223442|-166.3003663003663|-191.2087912087912|-207.32600732600733|-181.6849816849817]
591,2026-02-02 14:21:08,[-196.33699633699635|-174.35897435897436|-161.9047619047619|-164.83516483516485|-157.50915750915752]
592,2026-02-02 14:21:08,[-178.02197802197801|-142.85714285714286|-158.97435897435898|-179.48717948717947|-160.43956043956044]
593,2026-02-02 14:21:08,[-225.64102564102564|-112.08791208791209|-181.6849816849817|-189.74358974358975|-141.3919413919414]
594,2026-02-02 14:21:08,[-156.04395604395606|-142.85714285714286|-188.2783882783883|-166.3003663003663|-143.5897435897436]
595,2026-02-02 14:21:08,[-173.62637362637363|-132.6007326007326|-147.25274725274724|-153.1135531135531|-134.06593406593407]
596,2026-02-02 14:21:08,[-205.12820512820514|-112.08791208791209|-164.83516483516485|-158.97435897435898|-129.67032967032966]
597,2026-02-02 14:21:08,[-160.43956043956044|-134.06593406593407|-131.86813186813185|-106.22710622710623|-107.6923076923077]
598,2026-02-02 14:21:08,[-150.1831501831502|-115.01831501831502|-142.85714285714286|-109.15750915750915|-106.22710622710623]
599,2026-02-02 14:21:08,[-180.95238095238096|-85.71428571428571|-122.34432234432235|-113.55311355311355|-79.85347985347985]
600,2026-02-02 14:21:08,[-112.08791208791209|-72.52747252747253|-133.33333333333334|-63.73626373626374|-29.304029304029303]
601,2026-02-02 14:21:08,[-76.19047619047619|-55.67765567765568|-109.15750915750915|-103.2967032967033|-100.36630036630036]
602,2026-02-02 14:21:08,[-173.62637362637363|-87.91208791208791|-112.08791208791209|-79.85347985347985|-122.34432234432235]
603,2026-02-02 14:21:08,[-145.78754578754578|97.43589743589743|500.3663003663004|753.8461538461538|357.5091575091575]
604,2026-02-02 14:21:08,[-234.43223443223442|-322.34432234432234|-207.32600732600733|-90.10989010989012|-106.22710622710623]
605,2026-02-02 14:21:08,[-148.71794871794873|-65.2014652014652|-102.56410256410257|-72.52747252747253|-71.06227106227107]
606,2026-02-02 14:21:08,[-76.92307692307692|-41.02564102564103|-64.46886446886447|-55.67765567765568|-8.058608058608058]
607,2026-02-02 14:21:08,[-76.92307692307692|-5.86080586080586|-18.315018315018314|21.245421245421245|30.036630036630036]
608,2026-02-02 14:21:08,[-19.047619047619047|73.99267399267399|66.66666666666667|126.73992673992674|132.6007326007326]
609,2026-02-02 14:21:09,[124.54212454212454|208.7912087912088|178.02197802197801|179.48717948717947|179.48717948717947]
610,2026-02-02 14:21:09,[116.48351648351648|116.48351648351648|32.234432234432234|-24.90842490842491|-30.76923076923077]
611,2026-02-02 14:21:09,[-150.1831501831502|-119.41391941391942|-195.6043956043956|-193.4065934065934|-158.97435897435898]
612,2026-02-02 14:21:09,[-223.44322344322345|-190.47619047619048|-219.78021978021977|-180.21978021978023|-164.83516483516485]
613,2026-02-02 14:21:09,[-219.04761904761904|-172.16117216117217|-183.88278388278388|-192.67399267399267|-169.23076923076923]
614,2026-02-02 14:21:09,[-220.51282051282053|-103.2967032967033|-180.21978021978023|-195.6043956043956|-156.04395604395606]
615,2026-02-02 14:21:09,[-208.05860805860806|-143.5897435897436|-178.02197802197801|-168.4981684981685|-150.1831501831502]
616,2026-02-02 14:21:09,[-213.1868131868132|-153.1135531135531|-176.55677655677655|-150.1831501831502|-147.25274725274724]
617,2026-02-02 14:21:09,[-205.86080586080587|-157.50915750915752|-178.02197802197801|-154.57875457875457|-170.6959706959707]
618,2026-02-02 14:21:09,[-169.23076923076923|-127.47252747252747|-178.75457875457874|-156.7765567765568|-122.34432234432235]
619,2026-02-02 14:21:09,[-169.23076923076923|-114.28571428571429|-168.4981684981685|-131.86813186813185|-133.33333333333334]
620,2026-02-02 14:21:09,[-179.48717948717947|-135.53113553113553|-154.57875457875457|-125.27472527472527|-106.22710622710623]
621,2026-02-02 14:21:09,[-159.7069597069597|-118.68131868131869|-84.24908424908425|-75.45787545787546|-63.00366300366301]
622,2026-02-02 14:21:09,[-103.2967032967033|-113.55311355311355|-178.02197802197801|-136.996336996337|-109.89010989010988]
623,2026-02-02 14:21:09,[-182.41758241758242|-102.56410256410257|-167.76556776556777|-159.7069597069597|-43.223443223443226]
624,2026-02-02 14:21:09,[178.02197802197801|624.9084249084249|636.6300366300367|120.87912087912088|-318.68131868131866]
625,2026-02-02 14:21:09,[-361.17216117216117|-214.65201465201466|-143.5897435897436|-97.43589743589743|-82.78388278388279]
626,2026-02-02 14:21:09,[-149.45054945054946|-52.014652014652015|-119.41391941391942|-101.83150183150182|-30.76923076923077]
627,2026-02-02 14:21:09,[-134.7985347985348|-43.223443223443226|-67.3992673992674|-68.13186813186813|-20.512820512820515]
628,2026-02-02 14:21:09,[-41.75824175824176|32.967032967032964|-27.106227106227106|13.91941391941392|52.014652014652015]
629,2026-02-02 14:21:09,[19.047619047619047|110.62271062271063|101.83150183150182|110.62271062271063|197.06959706959708]
630,2026-02-02 14:21:09,[156.04395604395606|182.41758241758242|168.4981684981685|160.43956043956044|148.71794871794873]
631,2026-02-02 14:21:09,[31.501831501831504|4.395604395604396|-56.41025641025641|-82.78388278388279|-99.63369963369964]
632,2026-02-02 14:21:09,[-194.13919413919413|-169.23076923076923|-212.45421245421247|-211.7216117216117|-144.32234432234432]
633,2026-02-02 14:21:09,[-219.04761904761904|-202.93040293040292|-197.06959706959708|-180.95238095238096|-173.62637362637363]
634,2026-02-02 14:21:10,[-200.0|-141.3919413919414|-192.67399267399267|-202.1978021978022|-117.94871794871794]
635,2026-02-02 14:21:10,[-183.15018315018315|-154.57875457875457|-188.2783882783883|-172.16117216117217|-129.67032967032966]
636,2026-02-02 14:21:10,[-176.55677655677655|-140.65934065934067|-176.55677655677655|-158.97435897435898|-146.5201465201465]
637,2026-02-02 14:21:10,[-183.88278388278388|-123.80952380952381|-164.83516483516485|-201.46520146520146|-125.27472527472527]
638,2026-02-02 14:21:10,[-167.76556776556777|-141.3919413919414|-173.62637362637363|-153.1135531135531|-101.83150183150182]
639,2026-02-02 14:21:10,[-182.41758241758242|-123.80952380952381|-150.1831501831502|-175.0915750915751|-144.32234432234432]
640,2026-02-02 14:21:10,[-133.33333333333334|-95.23809523809524|-153.1135531135531|-147.25274725274724|-98.16849816849818]
641,2026-02-02 14:21:10,[-131.86813186813185|-106.95970695970696|-136.996336996337|-97.43589743589743|-98.9010989010989]
642,2026-02-02 14:21:10,[-124.54212454212454|-39.56043956043956|-73.99267399267399|-106.22710622710623|-79.12087912087912]
643,2026-02-02 14:21:10,[-153.1135531135531|-106.95970695970696|-123.80952380952381|-146.5201465201465|-122.34432234432235]
644,2026-02-02 14:21:10,[-132.6007326007326|-122.34432234432235|-114.28571428571429|53.47985347985348|491.57509157509156]
645,2026-02-02 14:21:10,[719.4139194139194|391.94139194139194|-192.67399267399267|-384.61538461538464|-220.51282051282053]
646,2026-02-02 14:21:10,[-144.32234432234432|-60.07326007326007|-106.22710622710623|-123.07692307692308|-53.47985347985348]
647,2026-02-02 14:21:10,[-109.89010989010988|-64.46886446886447|-71.06227106227107|-73.99267399267399|-15.384615384615385]
648,2026-02-02 14:21:10,[-59.34065934065934|-31.501831501831504|-49.08424908424909|-27.106227106227106|6.593406593406593]
649,2026-02-02 14:21:10,[-7.326007326007326|62.27106227106227|34.43223443223443|34.43223443223443|104.76190476190476]
650,2026-02-02 14:21:10,[87.91208791208791|158.24175824175825|146.5201465201465|167.76556776556777|214.65201465201466]
651,2026-02-02 14:21:10,[139.9267399267399|184.6153846153846|150.1831501831502|82.05128205128206|63.73626373626374]
652,2026-02-02 14:21:10,[-37.362637362637365|-71.06227106227107|-101.83150183150182|-172.16117216117217|-157.50915750915752]
653,2026-02-02 14:21:10,[-204.3956043956044|-153.1135531135531|-194.13919413919413|-202.93040293040292|-180.95238095238096]
654,2026-02-02 14:21:10,[-208.7912087912088|-126.73992673992674|-189.74358974358975|-204.3956043956044|-132.6007326007326]
655,2026-02-02 14:21:10,[-208.7912087912088|-145.78754578754578|-147.98534798534797|-180.21978021978023|-133.33333333333334]
656,2026-02-02 14:21:10,[-191.2087912087912|-123.07692307692308|-171.42857142857142|-189.74358974358975|-141.3919413919414]
657,2026-02-02 14:21:10,[-200.0|-153.1135531135531|-166.3003663003663|-161.17216117216117|-112.82051282051282]
658,2026-02-02 14:21:11,[-178.02197802197801|-126.00732600732601|-181.6849816849817|-172.8937728937729|-132.6007326007326]
659,2026-02-02 14:21:11,[-200.73260073260073|-153.1135531135531|-145.78754578754578|-160.43956043956044|-115.01831501831502]
660,2026-02-02 14:21:11,[-141.3919413919414|-120.14652014652015|-158.97435897435898|-156.04395604395606|-100.36630036630036]
661,2026-02-02 14:21:11,[-173.62637362637363|-134.06593406593407|-134.7985347985348|-153.1135531135531|-85.71428571428571]
662,2026-02-02 14:21:11,[-134.06593406593407|-89.37728937728937|-85.71428571428571|-73.99267399267399|-53.47985347985348]
663,2026-02-02 14:21:11,[-103.2967032967033|-113.55311355311355|-164.10256410256412|-154.57875457875457|-82.78388278388279]
664,2026-02-02 14:21:11,[-153.84615384615384|-101.83150183150182|-154.57875457875457|-172.16117216117217|-94.50549450549451]
665,2026-02-02 14:21:11,[66.66666666666667|523.0769230769231|724.5421245421245|252.74725274725276|-217.58241758241758]
666,2026-02-02 14:21:11,[-359.7069597069597|-216.11721611721612|-191.2087912087912|-112.08791208791209|-75.45787545787546]
667,2026-02-02 14:21:11,[-115.01831501831502|-85.71428571428571|-76.19047619047619|-101.83150183150182|-54.21245421245421]
668,2026-02-02 14:21:11,[-100.36630036630036|-61.53846153846154|-52.014652014652015|-55.67765567765568|-12.454212454212454]
669,2026-02-02 14:21:11,[-62.27106227106227|-2.197802197802198|29.304029304029303|8.791208791208792|53.47985347985348]
670,2026-02-02 14:21:11,[30.036630036630036|72.52747252747253|97.43589743589743|146.5201465201465|183.88278388278388]
671,2026-02-02 14:21:11,[131.86813186813185|177.28937728937728|183.88278388278388|139.9267399267399|150.1831501831502]
672,2026-02-02 14:21:11,[69.59706959706959|30.036630036630036|-30.036630036630036|-88.64468864468864|-101.83150183150182]
673,2026-02-02 14:21:11,[-192.67399267399267|-158.97435897435898|-176.55677655677655|-223.44322344322345|-189.01098901098902]
674,2026-02-02 14:21:11,[-204.3956043956044|-172.16117216117217|-207.32600732600733|-229.3040293040293|-158.97435897435898]
675,2026-02-02 14:21:11,[-192.67399267399267|-160.43956043956044|-188.2783882783883|-200.0|-141.3919413919414]
676,2026-02-02 14:21:11,[-196.33699633699635|-178.02197802197801|-164.83516483516485|-169.23076923076923|-155.3113553113553]
677,2026-02-02 14:21:11,[-207.32600732600733|-155.3113553113553|-157.50915750915752|-194.13919413919413|-153.1135531135531]
678,2026-02-02 14:21:11,[-211.7216117216117|-153.1135531135531|-150.1831501831502|-182.41758241758242|-123.80952380952381]
679,2026-02-02 14:21:11,[-199.26739926739927|-138.46153846153845|-164.83516483516485|-177.28937728937728|-132.6007326007326]
680,2026-02-02 14:21:11,[-205.12820512820514|-164.83516483516485|-129.67032967032966|-169.23076923076923|-142.85714285714286]
681,2026-02-02 14:21:11,[-182.41758241758242|-150.1831501831502|-156.04395604395606|-147.25274725274724|-115.01831501831502]
682,2026-02-02 14:21:11,[-158.97435897435898|-135.53113553113553|-134.06593406593407|-145.05494505494505|-71.06227106227107]
683,2026-02-02 14:21:11,[-108.42490842490842|-73.99267399267399|-126.73992673992674|-176.55677655677655|-113.55311355311355]
684,2026-02-02 14:21:12,[-167.76556776556777|-145.05494505494505|-142.85714285714286|-164.10256410256412|-145.05494505494505]
685,2026-02-02 14:21:12,[-201.46520146520146|-38.827838827838825|242.49084249084248|600.0|635.8974358974359]
686,2026-02-02 14:21:12,[5.86080586080586|-358.24175824175825|-328.93772893772893|-224.9084249084249|-122.34432234432235]
687,2026-02-02 14:21:12,[-178.75457875457874|-115.75091575091575|-87.91208791208791|-135.53113553113553|-87.91208791208791]
688,2026-02-02 14:21:12,[-112.08791208791209|-71.7948717948718|-112.82051282051282|-90.10989010989012|-29.304029304029303]
689,2026-02-02 14:21:12,[-98.9010989010989|-40.29304029304029|-52.014652014652015|-43.223443223443226|16.84981684981685]
690,2026-02-02 14:21:12,[-19.78021978021978|52.747252747252745|34.43223443223443|39.56043956043956|122.34432234432235]
691,2026-02-02 14:21:12,[115.01831501831502|154.57875457875457|123.07692307692308|131.13553113553112|178.75457875457874]
692,2026-02-02 14:21:12,[81.31868131868131|100.36630036630036|64.46886446886447|-38.827838827838825|-57.142857142857146]
693,2026-02-02 14:21:12,[-161.9047619047619|-147.25274725274724|-189.01098901098902|-235.89743589743588|-182.41758241758242]
694,2026-02-02 14:21:12,[-242.49084249084248|-217.58241758241758|-205.86080586080587|-241.02564102564102|-180.95238095238096]
695,2026-02-02 14:21:12,[-241.02564102564102|-174.35897435897436|-204.3956043956044|-225.64102564102564|-170.6959706959707]
696,2026-02-02 14:21:12,[-212.45421245421247|-182.41758241758242|-203.66300366300365|-238.0952380952381|-142.85714285714286]
697,2026-02-02 14:21:12,[-202.93040293040292|-173.62637362637363|-170.6959706959707|-227.83882783882783|-143.5897435897436]
698,2026-02-02 14:21:12,[-205.86080586080587|-181.6849816849817|-189.74358974358975|-205.86080586080587|-169.23076923076923]
699,2026-02-02 14:21:12,[-200.0|-167.76556776556777|-182.41758241758242|-205.86080586080587|-117.94871794871794]
700,2026-02-02 14:21:12,[-166.3003663003663|-168.4981684981685|-164.83516483516485|-205.86080586080587|-120.14652014652015]
701,2026-02-02 14:21:12,[-188.2783882783883|-156.04395604395606|-153.1135531135531|-173.62637362637363|-135.53113553113553]
702,2026-02-02 14:21:12,[-142.85714285714286|-124.54212454212454|-106.22710622710623|-157.50915750915752|-64.46886446886447]
703,2026-02-02 14:21:12,[-95.97069597069597|-106.22710622710623|-164.83516483516485|-192.67399267399267|-105.49450549450549]
704,2026-02-02 14:21:12,[-159.7069597069597|-123.80952380952381|-176.55677655677655|-170.6959706959707|-122.34432234432235]
705,2026-02-02 14:21:12,[-84.98168498168498|299.6336996336996|712.0879120879121|478.38827838827837|22.71062271062271]
706,2026-02-02 14:21:12,[-396.3369963369963|-299.6336996336996|-191.94139194139194|-135.53113553113553|-68.13186813186813]
707,2026-02-02 14:21:12,[-142.85714285714286|-106.22710622710623|-90.10989010989012|-123.80952380952381|-52.747252747252745]
708,2026-02-02 14:21:12,[-112.08791208791209|-52.747252747252745|-25.641025641025642|-60.07326007326007|-12.454212454212454]
709,2026-02-02 14:21:13,[-60.07326007326007|-16.117216117216117|28.571428571428573|-3.663003663003663|43.223443223443226]
710,2026-02-02 14:21:13,[15.384615384615385|79.85347985347985|93.04029304029304|128.2051282051282|194.13919413919413]
711,2026-02-02 14:21:13,[147.25274725274724|191.2087912087912|180.95238095238096|138.46153846153845|183.88278388278388]
712,2026-02-02 14:21:13,[84.24908424908425|63.73626373626374|-2.197802197802198|-101.83150183150182|-80.58608058608058]
713,2026-02-02 14:21:13,[-169.96336996336996|-170.6959706959707|-168.4981684981685|-229.3040293040293|-158.97435897435898]
714,2026-02-02 14:21:13,[-197.06959706959708|-188.2783882783883|-169.96336996336996|-236.63003663003664|-153.1135531135531]
715,2026-02-02 14:21:13,[-193.4065934065934|-161.9047619047619|-169.96336996336996|-202.93040293040292|-120.87912087912088]
716,2026-02-02 14:21:13,[-170.6959706959707|-167.76556776556777|-147.98534798534797|-166.3003663003663|-141.3919413919414]
717,2026-02-02 14:21:13,[-180.95238095238096|-142.85714285714286|-146.5201465201465|-208.7912087912088|-141.3919413919414]
718,2026-02-02 14:21:13,[-191.2087912087912|-132.6007326007326|-128.2051282051282|-207.32600732600733|-134.7985347985348]
719,2026-02-02 14:21:13,[-169.96336996336996|-150.1831501831502|-120.87912087912088|-196.33699633699635|-132.6007326007326]
720,2026-02-02 14:21:13,[-170.6959706959707|-134.06593406593407|-112.08791208791209|-142.85714285714286|-98.9010989010989]
721,2026-02-02 14:21:13,[-147.98534798534797|-115.01831501831502|-79.12087912087912|-110.62271062271063|-49.08424908424909]
722,2026-02-02 14:21:13,[-120.87912087912088|-123.07692307692308|-136.996336996337|-133.33333333333334|-97.43589743589743]
723,2026-02-02 14:21:13,[-161.17216117216117|-111.35531135531136|-119.41391941391942|-178.02197802197801|-98.16849816849818]
724,2026-02-02 14:21:13,[-56.41025641025641|243.2234432234432|663.003663003663|576.5567765567765|76.92307692307692]
725,2026-02-02 14:21:13,[-394.87179487179486|-312.8205128205128|-191.2087912087912|-144.32234432234432|-49.08424908424909]
726,2026-02-02 14:21:13,[-141.3919413919414|-90.10989010989012|-62.27106227106227|-101.83150183150182|-25.641025641025642]
727,2026-02-02 14:21:13,[-101.83150183150182|-71.06227106227107|-21.245421245421245|-63.00366300366301|-32.234432234432234]
728,2026-02-02 14:21:13,[-31.501831501831504|15.384615384615385|26.373626373626372|-5.128205128205129|59.34065934065934]
729,2026-02-02 14:21:13,[30.036630036630036|97.43589743589743|125.27472527472527|119.41391941391942|194.13919413919413]
730,2026-02-02 14:21:13,[157.50915750915752|207.32600732600733|210.25641025641025|131.86813186813185|201.46520146520146]
731,2026-02-02 14:21:13,[104.02930402930403|56.41025641025641|-13.91941391941392|-98.9010989010989|-65.2014652014652]
732,2026-02-02 14:21:13,[-158.97435897435898|-169.23076923076923|-165.56776556776558|-201.46520146520146|-158.97435897435898]
733,2026-02-02 14:21:13,[-191.2087912087912|-173.62637362637363|-169.23076923076923|-191.2087912087912|-164.83516483516485]
734,2026-02-02 14:21:13,[-179.48717948717947|-150.1831501831502|-172.8937728937729|-170.6959706959707|-99.63369963369964]
735,2026-02-02 14:21:14,[-159.7069597069597|-132.6007326007326|-136.996336996337|-189.74358974358975|-141.3919413919414]
736,2026-02-02 14:21:14,[-178.02197802197801|-155.3113553113553|-123.80952380952381|-181.6849816849817|-136.996336996337]
737,2026-02-02 14:21:14,[-172.16117216117217|-124.54212454212454|-119.41391941391942|-182.41758241758242|-117.94871794871794]
738,2026-02-02 14:21:14,[-190.47619047619048|-160.43956043956044|-141.3919413919414|-155.3113553113553|-98.9010989010989]
739,2026-02-02 14:21:14,[-150.1831501831502|-147.98534798534797|-120.87912087912088|-158.24175824175825|-85.71428571428571]
740,2026-02-02 14:21:14,[-158.24175824175825|-129.67032967032966|-103.2967032967033|-153.84615384615384|-66.66666666666667]
741,2026-02-02 14:21:14,[-100.36630036630036|-82.78388278388279|-43.956043956043956|-133.33333333333334|-114.28571428571429]
742,2026-02-02 14:21:14,[-126.73992673992674|-123.80952380952381|-129.67032967032966|-176.55677655677655|-87.17948717948718]
743,2026-02-02 14:21:14,[-143.5897435897436|-195.6043956043956|26.373626373626372|345.7875457875458|744.3223443223443]
744,2026-02-02 14:21:14,[545.054945054945|-38.827838827838825|-336.996336996337|-314.2857142857143|-156.7765567765568]
745,2026-02-02 14:21:14,[-106.22710622710623|-110.62271062271063|-88.64468864468864|-130.4029304029304|-61.53846153846154]
746,2026-02-02 14:21:14,[-72.52747252747253|-72.52747252747253|-41.75824175824176|-87.17948717948718|-21.245421245421245]
747,2026-02-02 14:21:14,[-53.47985347985348|-42.49084249084249|-8.058608058608058|-47.61904761904762|10.989010989010989]
748,2026-02-02 14:21:14,[-7.326007326007326|53.47985347985348|84.24908424908425|46.15384615384615|154.57875457875457]
749,2026-02-02 14:21:14,[113.55311355311355|147.98534798534797|179.48717948717947|158.97435897435898|183.88278388278388]
750,2026-02-02 14:21:14,[145.78754578754578|132.6007326007326|119.41391941391942|19.78021978021978|-14.652014652014651]
751,2026-02-02 14:21:14,[-68.13186813186813|-112.08791208791209|-124.54212454212454|-213.1868131868132|-166.3003663003663]
752,2026-02-02 14:21:14,[-183.88278388278388|-204.3956043956044|-200.73260073260073|-220.51282051282053|-157.50915750915752]
753,2026-02-02 14:21:14,[-189.01098901098902|-178.02197802197801|-154.57875457875457|-213.1868131868132|-167.76556776556777]
754,2026-02-02 14:21:14,[-172.16117216117217|-173.62637362637363|-153.84615384615384|-197.06959706959708|-153.1135531135531]
755,2026-02-02 14:21:14,[-240.2930402930403|-136.996336996337|-119.41391941391942|-188.2783882783883|-155.3113553113553]
756,2026-02-02 14:21:14,[-213.91941391941393|-170.6959706959707|-144.32234432234432|-196.33699633699635|-157.50915750915752]
757,2026-02-02 14:21:14,[-192.67399267399267|-135.53113553113553|-143.5897435897436|-200.0|-113.55311355311355]
758,2026-02-02 14:21:14,[-166.3003663003663|-148.71794871794873|-112.82051282051282|-167.76556776556777|-123.07692307692308]
759,2026-02-02 14:21:15,[-166.3003663003663|-144.32234432234432|-120.14652014652015|-166.3003663003663|-113.55311355311355]
760,2026-02-02 14:21:15,[-165.56776556776558|-126.73992673992674|-98.16849816849818|-134.06593406593407|-84.24908424908425]
761,2026-02-02 14:21:15,[-103.2967032967033|-101.83150183150182|-60.8058608058608|-113.55311355311355|-95.97069597069597]
762,2026-02-02 14:21:15,[-136.996336996337|-156.04395604395606|-79.85347985347985|-159.7069597069597|-106.22710622710623]
763,2026-02-02 14:21:15,[-119.41391941391942|-166.3003663003663|-107.6923076923077|26.373626373626372|446.8864468864469]
764,2026-02-02 14:21:15,[791.9413919413919|408.05860805860806|-150.1831501831502|-367.76556776556777|-207.32600732600733]
765,2026-02-02 14:21:15,[-167.03296703296704|-106.22710622710623|-52.747252747252745|-112.08791208791209|-73.26007326007326]
766,2026-02-02 14:21:15,[-106.22710622710623|-103.2967032967033|-31.501831501831504|-97.43589743589743|-40.29304029304029]
767,2026-02-02 14:21:15,[-50.54945054945055|-62.27106227106227|-16.117216117216117|-38.827838827838825|21.245421245421245]
768,2026-02-02 14:21:15,[-0.7326007326007326|-5.86080586080586|59.34065934065934|46.88644688644688|113.55311355311355]
769,2026-02-02 14:21:15,[88.64468864468864|112.08791208791209|178.02197802197801|147.25274725274724|204.3956043956044]
770,2026-02-02 14:21:15,[161.9047619047619|155.3113553113553|156.04395604395606|38.827838827838825|63.00366300366301]
771,2026-02-02 14:21:15,[-26.373626373626372|-97.43589743589743|-101.0989010989011|-197.06959706959708|-154.57875457875457]
772,2026-02-02 14:21:15,[-155.3113553113553|-181.6849816849817|-192.67399267399267|-210.25641025641025|-173.62637362637363]
773,2026-02-02 14:21:15,[-207.32600732600733|-200.0|-153.1135531135531|-219.04761904761904|-131.13553113553112]
774,2026-02-02 14:21:15,[-191.2087912087912|-211.7216117216117|-115.75091575091575|-174.35897435897436|-127.47252747252747]
775,2026-02-02 14:21:15,[-170.6959706959707|-200.73260073260073|-156.04395604395606|-182.41758241758242|-126.73992673992674]
776,2026-02-02 14:21:15,[-172.16117216117217|-194.13919413919413|-142.12454212454213|-172.16117216117217|-153.1135531135531]
777,2026-02-02 14:21:15,[-146.5201465201465|-166.3003663003663|-129.67032967032966|-201.46520146520146|-123.07692307692308]
778,2026-02-02 14:21:15,[-164.83516483516485|-161.17216117216117|-153.1135531135531|-167.03296703296704|-132.6007326007326]
779,2026-02-02 14:21:15,[-161.17216117216117|-123.80952380952381|-126.73992673992674|-177.28937728937728|-95.97069597069597]
780,2026-02-02 14:21:15,[-115.75091575091575|-145.78754578754578|-126.73992673992674|-160.43956043956044|-109.89010989010988]
781,2026-02-02 14:21:15,[-149.45054945054946|-108.42490842490842|-81.31868131868131|-142.85714285714286|-82.78388278388279]
782,2026-02-02 14:21:15,[-71.7948717948718|-66.66666666666667|-50.54945054945055|-133.33333333333334|-112.08791208791209]
783,2026-02-02 14:21:15,[-136.996336996337|-155.3113553113553|-84.98168498168498|-150.1831501831502|-94.50549450549451]
784,2026-02-02 14:21:16,[-136.996336996337|-170.6959706959707|-43.223443223443226|207.32600732600733|684.981684981685]
785,2026-02-02 14:21:16,[665.934065934066|84.24908424908425|-320.8791208791209|-290.1098901098901|-147.25274725274724]
786,2026-02-02 14:21:16,[-136.996336996337|-135.53113553113553|-62.27106227106227|-110.62271062271063|-76.92307692307692]
787,2026-02-02 14:21:16,[-94.50549450549451|-111.35531135531136|-44.688644688644686|-81.31868131868131|-43.223443223443226]
788,2026-02-02 14:21:16,[-62.27106227106227|-47.61904761904762|-21.245421245421245|-50.54945054945055|28.571428571428573]
789,2026-02-02 14:21:16,[5.128205128205129|-16.117216117216117|68.13186813186813|54.94505494505494|116.48351648351648]
790,2026-02-02 14:21:16,[101.83150183150182|110.62271062271063|193.4065934065934|166.3003663003663|205.12820512820514]
791,2026-02-02 14:21:16,[151.64835164835165|128.2051282051282|138.46153846153845|37.362637362637365|27.106227106227106]
792,2026-02-02 14:21:16,[-74.72527472527473|-125.27472527472527|-123.80952380952381|-173.62637362637363|-166.3003663003663]
793,2026-02-02 14:21:16,[-189.74358974358975|-205.86080586080587|-181.6849816849817|-242.49084249084248|-177.28937728937728]
794,2026-02-02 14:21:16,[-213.1868131868132|-227.83882783882783|-153.1135531135531|-204.3956043956044|-161.17216117216117]
795,2026-02-02 14:21:16,[-193.4065934065934|-180.95238095238096|-100.36630036630036|-172.8937728937729|-171.42857142857142]
796,2026-02-02 14:21:16,[-175.0915750915751|-191.94139194139194|-141.3919413919414|-193.4065934065934|-159.7069597069597]
797,2026-02-02 14:21:16,[-180.95238095238096|-178.02197802197801|-149.45054945054946|-191.2087912087912|-131.86813186813185]
798,2026-02-02 14:21:16,[-157.50915750915752|-191.94139194139194|-120.87912087912088|-190.47619047619048|-150.1831501831502]
799,2026-02-02 14:21:16,[-149.45054945054946|-147.98534798534797|-150.1831501831502|-188.2783882783883|-115.01831501831502]
800,2026-02-02 14:21:16,[-156.04395604395606|-161.9047619047619|-97.43589743589743|-160.43956043956044|-134.06593406593407]
801,2026-02-02 14:21:16,[-124.54212454212454|-158.97435897435898|-112.08791208791209|-160.43956043956044|-109.89010989010988]
802,2026-02-02 14:21:16,[-129.67032967032966|-167.76556776556777|-84.24908424908425|-115.01831501831502|-81.31868131868131]
803,2026-02-02 14:21:16,[-134.06593406593407|-141.3919413919414|-76.92307692307692|-141.3919413919414|-99.63369963369964]
804,2026-02-02 14:21:16,[-84.24908424908425|-87.91208791208791|-16.84981684981685|-86.44688644688645|-43.223443223443226]
805,2026-02-02 14:21:16,[-88.64468864468864|-141.3919413919414|-109.15750915750915|-160.43956043956044|-95.97069597069597]
806,2026-02-02 14:21:16,[-125.27472527472527|-143.5897435897436|-148.71794871794873|-82.78388278388279|295.97069597069594]
807,2026-02-02 14:21:16,[735.5311355311355|597.0695970695971|68.13186813186813|-368.4981684981685|-268.86446886446885]
808,2026-02-02 14:21:17,[-147.25274725274724|-143.5897435897436|-90.84249084249085|-142.12454212454213|-73.26007326007326]
809,2026-02-02 14:21:17,[-70.32967032967034|-89.37728937728937|-54.94505494505494|-84.98168498168498|-30.76923076923077]
810,2026-02-02 14:21:17,[-39.56043956043956|-84.98168498168498|-12.454212454212454|-74.72527472527473|-13.91941391941392]
811,2026-02-02 14:21:17,[21.245421245421245|22.71062271062271|68.13186813186813|41.02564102564103|93.77289377289377]
812,2026-02-02 14:21:17,[87.17948717948718|120.87912087912088|166.3003663003663|125.27472527472527|204.3956043956044]
813,2026-02-02 14:21:17,[182.41758241758242|172.16117216117217|210.98901098901098|91.57509157509158|78.3882783882784]
814,2026-02-02 14:21:17,[-12.454212454212454|-64.46886446886447|-53.47985347985348|-153.1135531135531|-154.57875457875457]
815,2026-02-02 14:21:17,[-197.06959706959708|-213.1868131868132|-144.32234432234432|-213.1868131868132|-169.96336996336996]
816,2026-02-02 14:21:17,[-173.62637362637363|-197.06959706959708|-190.47619047619048|-201.46520146520146|-157.50915750915752]
817,2026-02-02 14:21:17,[-158.24175824175825|-201.46520146520146|-157.50915750915752|-169.96336996336996|-122.34432234432235]
818,2026-02-02 14:21:17,[-158.97435897435898|-183.88278388278388|-153.1135531135531|-177.28937728937728|-142.85714285714286]
819,2026-02-02 14:21:17,[-150.1831501831502|-196.33699633699635|-148.71794871794873|-188.2783882783883|-145.78754578754578]
820,2026-02-02 14:21:17,[-177.28937728937728|-170.6959706959707|-115.01831501831502|-197.06959706959708|-142.85714285714286]
821,2026-02-02 14:21:17,[-161.9047619047619|-189.74358974358975|-141.3919413919414|-182.41758241758242|-144.32234432234432]
822,2026-02-02 14:21:17,[-129.67032967032966|-157.50915750915752|-122.34432234432235|-180.95238095238096|-123.80952380952381]
823,2026-02-02 14:21:17,[-120.14652014652015|-149.45054945054946|-110.62271062271063|-159.7069597069597|-113.55311355311355]
824,2026-02-02 14:21:17,[-143.5897435897436|-155.3113553113553|-113.55311355311355|-147.25274725274724|-100.36630036630036]
825,2026-02-02 14:21:17,[-98.9010989010989|-145.78754578754578|-102.56410256410257|-115.75091575091575|-95.97069597069597]
826,2026-02-02 14:21:17,[-73.99267399267399|-94.50549450549451|-42.49084249084249|-98.9010989010989|-65.2014652014652]
827,2026-02-02 14:21:17,[-129.67032967032966|-161.9047619047619|-97.43589743589743|-125.27472527472527|-112.82051282051282]
828,2026-02-02 14:21:17,[-112.08791208791209|-143.5897435897436|-136.996336996337|-147.25274725274724|151.64835164835165]
829,2026-02-02 14:21:17,[556.7765567765567|694.5054945054945|286.4468864468864|-263.7362637362637|-320.1465201465202]
830,2026-02-02 14:21:17,[-214.65201465201466|-146.5201465201465|-72.52747252747253|-122.34432234432235|-98.9010989010989]
831,2026-02-02 14:21:17,[-84.98168498168498|-88.64468864468864|-71.06227106227107|-100.36630036630036|-68.13186813186813]
832,2026-02-02 14:21:17,[-59.34065934065934|-59.34065934065934|-13.186813186813186|-77.65567765567765|-4.395604395604396]
833,2026-02-02 14:21:17,[-2.197802197802198|-40.29304029304029|29.304029304029303|7.326007326007326|74.72527472527473]
834,2026-02-02 14:21:18,[93.04029304029304|81.31868131868131|166.3003663003663|134.06593406593407|173.62637362637363]
835,2026-02-02 14:21:18,[178.75457875457874|150.1831501831502|175.0915750915751|68.13186813186813|52.014652014652015]
836,2026-02-02 14:21:18,[51.282051282051285|-62.27106227106227|-86.44688644688645|-161.9047619047619|-113.55311355311355]
837,2026-02-02 14:21:18,[-168.4981684981685|-216.11721611721612|-169.96336996336996|-219.04761904761904|-205.86080586080587]
838,2026-02-02 14:21:18,[-208.7912087912088|-235.16483516483515|-189.01098901098902|-214.65201465201466|-200.0]
839,2026-02-02 14:21:18,[-158.97435897435898|-189.01098901098902|-132.6007326007326|-214.65201465201466|-170.6959706959707]
840,2026-02-02 14:21:18,[-144.32234432234432|-191.94139194139194|-134.06593406593407|-196.33699633699635|-172.8937728937729]
841,2026-02-02 14:21:18,[-169.96336996336996|-194.87179487179486|-128.2051282051282|-195.6043956043956|-173.62637362637363]
842,2026-02-02 14:21:18,[-158.97435897435898|-191.2087912087912|-164.10256410256412|-213.1868131868132|-161.9047619047619]
843,2026-02-02 14:21:18,[-141.3919413919414|-204.3956043956044|-101.83150183150182|-150.1831501831502|-156.04395604395606]
844,2026-02-02 14:21:18,[-123.80952380952381|-173.62637362637363|-134.06593406593407|-174.35897435897436|-121.6117216117216]
845,2026-02-02 14:21:18,[-131.86813186813185|-166.3003663003663|-157.50915750915752|-166.3003663003663|-113.55311355311355]
846,2026-02-02 14:21:18,[-86.44688644688645|-149.45054945054946|-90.10989010989012|-98.9010989010989|-101.83150183150182]
847,2026-02-02 14:21:18,[-123.07692307692308|-164.83516483516485|-129.67032967032966|-126.73992673992674|-131.13553113553112]
848,2026-02-02 14:21:18,[-101.83150183150182|-106.22710622710623|-41.75824175824176|-104.02930402930403|-94.50549450549451]
849,2026-02-02 14:21:18,[-97.43589743589743|-121.6117216117216|-84.98168498168498|-144.32234432234432|-141.3919413919414]
850,2026-02-02 14:21:18,[-123.80952380952381|-124.54212454212454|-120.87912087912088|-166.3003663003663|-5.128205128205129]
851,2026-02-02 14:21:18,[425.64102564102564|595.6043956043956|294.5054945054945|-243.2234432234432|-353.84615384615387]
852,2026-02-02 14:21:18,[-207.32600732600733|-174.35897435897436|-102.56410256410257|-126.73992673992674|-82.78388278388279]
853,2026-02-02 14:21:18,[-60.8058608058608|-141.3919413919414|-66.66666666666667|-96.7032967032967|-63.73626373626374]
854,2026-02-02 14:21:18,[-32.967032967032964|-76.19047619047619|-2.93040293040293|-50.54945054945055|-70.32967032967034]
855,2026-02-02 14:21:18,[-26.373626373626372|-53.47985347985348|43.223443223443226|-7.326007326007326|28.571428571428573]
856,2026-02-02 14:21:18,[75.45787545787546|44.688644688644686|145.78754578754578|76.92307692307692|98.9010989010989]
857,2026-02-02 14:21:18,[194.13919413919413|126.73992673992674|148.71794871794873|90.10989010989012|66.66666666666667]
858,2026-02-02 14:21:18,[38.827838827838825|-48.35164835164835|-97.43589743589743|-120.87912087912088|-119.41391941391942]
859,2026-02-02 14:21:19,[-164.83516483516485|-226.37362637362637|-145.78754578754578|-172.16117216117217|-189.74358974358975]
860,2026-02-02 14:21:19,[-191.2087912087912|-205.86080586080587|-147.25274725274724|-202.93040293040292|-143.5897435897436]
861,2026-02-02 14:21:19,[-126.00732600732601|-180.21978021978023|-131.13553113553112|-158.24175824175825|-153.1135531135531]
862,2026-02-02 14:21:19,[-130.4029304029304|-205.86080586080587|-158.97435897435898|-109.15750915750915|-145.78754578754578]
863,2026-02-02 14:21:19,[-156.04395604395606|-189.74358974358975|-110.62271062271063|-131.13553113553112|-147.25274725274724]
864,2026-02-02 14:21:19,[-123.80952380952381|-191.2087912087912|-132.6007326007326|-148.71794871794873|-147.25274725274724]
865,2026-02-02 14:21:19,[-145.78754578754578|-161.9047619047619|-98.9010989010989|-167.03296703296704|-103.2967032967033]
866,2026-02-02 14:21:19,[-120.87912087912088|-153.84615384615384|-85.71428571428571|-156.04395604395606|-153.1135531135531]
867,2026-02-02 14:21:19,[-85.71428571428571|-124.54212454212454|-115.01831501831502|-124.54212454212454|-98.16849816849818]
868,2026-02-02 14:21:19,[-98.16849816849818|-118.68131868131869|-81.31868131868131|-131.13553113553112|-66.66666666666667]
869,2026-02-02 14:21:19,[-100.36630036630036|-54.94505494505494|-47.61904761904762|-88.64468864468864|-98.16849816849818]
870,2026-02-02 14:21:19,[-60.8058608058608|-127.47252747252747|-106.22710622710623|-109.15750915750915|-76.19047619047619]
871,2026-02-02 14:21:19,[-108.42490842490842|-195.6043956043956|-41.75824175824176|107.6923076923077|432.967032967033]
872,2026-02-02 14:21:19,[627.8388278388278|226.37362637362637|-192.67399267399267|-325.27472527472526|-211.7216117216117]
873,2026-02-02 14:21:19,[-100.36630036630036|-84.98168498168498|-38.827838827838825|-144.32234432234432|-57.142857142857146]
874,2026-02-02 14:21:19,[-21.245421245421245|-78.3882783882784|-16.117216117216117|-42.49084249084249|-16.84981684981685]
875,2026-02-02 14:21:19,[-17.582417582417584|-57.142857142857146|5.128205128205129|-28.571428571428573|-9.523809523809524]
876,2026-02-02 14:21:19,[49.08424908424909|13.91941391941392|57.142857142857146|27.106227106227106|103.2967032967033]
877,2026-02-02 14:21:19,[131.13553113553112|123.80952380952381|175.0915750915751|158.24175824175825|208.7912087912088]
878,2026-02-02 14:21:19,[183.88278388278388|126.73992673992674|175.0915750915751|72.52747252747253|41.75824175824176]
879,2026-02-02 14:21:19,[-13.91941391941392|-97.43589743589743|-75.45787545787546|-153.1135531135531|-150.1831501831502]
880,2026-02-02 14:21:19,[-147.25274725274724|-204.3956043956044|-156.7765567765568|-191.94139194139194|-189.74358974358975]
881,2026-02-02 14:21:19,[-158.24175824175825|-191.2087912087912|-134.06593406593407|-164.83516483516485|-166.3003663003663]
882,2026-02-02 14:21:19,[-156.7765567765568|-173.62637362637363|-130.4029304029304|-166.3003663003663|-144.32234432234432]
883,2026-02-02 14:21:19,[-122.34432234432235|-176.55677655677655|-172.8937728937729|-142.85714285714286|-120.87912087912088]
884,2026-02-02 14:21:19,[-145.78754578754578|-161.17216117216117|-125.27472527472527|-167.76556776556777|-145.05494505494505]
885,2026-02-02 14:21:20,[-142.85714285714286|-164.83516483516485|-118.68131868131869|-155.3113553113553|-134.7985347985348]
886,2026-02-02 14:21:20,[-115.01831501831502|-148.71794871794873|-146.5201465201465|-150.1831501831502|-115.01831501831502]
887,2026-02-02 14:21:20,[-95.97069597069597|-180.21978021978023|-107.6923076923077|-108.42490842490842|-131.13553113553112]
888,2026-02-02 14:21:20,[-99.63369963369964|-145.78754578754578|-100.36630036630036|-110.62271062271063|-101.83150183150182]
889,2026-02-02 14:21:20,[-94.50549450549451|-129.67032967032966|-87.17948717948718|-122.34432234432235|-85.71428571428571]
890,2026-02-02 14:21:20,[-19.78021978021978|-41.75824175824176|-62.27106227106227|-81.31868131868131|-94.50549450549451]
891,2026-02-02 14:21:20,[-107.6923076923077|-158.97435897435898|-107.6923076923077|-121.6117216117216|-95.23809523809524]
892,2026-02-02 14:21:20,[-86.44688644688645|-174.35897435897436|-53.47985347985348|264.46886446886447|678.3882783882784]
893,2026-02-02 14:21:20,[654.2124542124542|-2.197802197802198|-343.5897435897436|-310.6227106227106|-169.96336996336996]
894,2026-02-02 14:21:20,[-66.66666666666667|-131.86813186813185|-79.85347985347985|-79.12087912087912|-94.50549450549451]
895,2026-02-02 14:21:20,[-59.34065934065934|-88.64468864468864|-41.75824175824176|-72.52747252747253|-70.32967032967034]
896,2026-02-02 14:21:20,[-25.641025641025642|-41.75824175824176|8.058608058608058|-17.582417582417584|-49.81684981684982]
897,2026-02-02 14:21:20,[41.02564102564103|13.91941391941392|66.66666666666667|65.2014652014652|62.27106227106227]
898,2026-02-02 14:21:20,[135.53113553113553|172.16117216117217|200.0|175.0915750915751|136.996336996337]
899,2026-02-02 14:21:20,[136.996336996337|178.02197802197801|160.43956043956044|46.15384615384615|-9.523809523809524]
900,2026-02-02 14:21:20,[-42.49084249084249|-105.49450549450549|-129.67032967032966|-172.8937728937729|-195.6043956043956]
901,2026-02-02 14:21:20,[-154.57875457875457|-238.0952380952381|-180.21978021978023|-208.7912087912088|-182.41758241758242]
902,2026-02-02 14:21:20,[-156.04395604395606|-237.36263736263737|-161.9047619047619|-167.76556776556777|-194.13919413919413]
903,2026-02-02 14:21:20,[-147.25274725274724|-200.0|-167.76556776556777|-207.32600732600733|-178.02197802197801]
904,2026-02-02 14:21:20,[-120.87912087912088|-195.6043956043956|-172.8937728937729|-189.01098901098902|-171.42857142857142]
905,2026-02-02 14:21:20,[-157.50915750915752|-208.05860805860806|-169.23076923076923|-158.97435897435898|-194.87179487179486]
906,2026-02-02 14:21:20,[-142.12454212454213|-221.24542124542126|-142.85714285714286|-137.72893772893772|-173.62637362637363]
907,2026-02-02 14:21:20,[-142.85714285714286|-194.13919413919413|-126.73992673992674|-141.3919413919414|-156.04395604395606]
908,2026-02-02 14:21:20,[-173.62637362637363|-182.41758241758242|-98.9010989010989|-145.78754578754578|-168.4981684981685]
909,2026-02-02 14:21:21,[-125.27472527472527|-156.04395604395606|-94.50549450549451|-130.4029304029304|-129.67032967032966]
910,2026-02-02 14:21:21,[-94.50549450549451|-141.3919413919414|-82.78388278388279|-86.44688644688645|-134.06593406593407]
911,2026-02-02 14:21:21,[-124.54212454212454|-223.44322344322345|-126.00732600732601|-101.0989010989011|-156.04395604395606]
912,2026-02-02 14:21:21,[-110.62271062271063|-182.41758241758242|-100.36630036630036|138.46153846153845|523.0769230769231]
913,2026-02-02 14:21:21,[654.2124542124542|151.64835164835165|-289.3772893772894|-358.24175824175825|-255.67765567765568]
914,2026-02-02 14:21:21,[-147.25274725274724|-136.996336996337|-83.51648351648352|-136.996336996337|-135.53113553113553]
915,2026-02-02 14:21:21,[-16.117216117216117|-87.91208791208791|-60.07326007326007|-73.99267399267399|-97.43589743589743]
916,2026-02-02 14:21:21,[-37.362637362637365|-59.34065934065934|-25.641025641025642|-41.75824175824176|-37.362637362637365]
917,2026-02-02 14:21:21,[15.384615384615385|-3.663003663003663|44.688644688644686|45.42124542124542|84.24908424908425]
918,2026-02-02 14:21:21,[134.06593406593407|88.64468864468864|156.04395604395606|161.9047619047619|147.25274725274724]
919,2026-02-02 14:21:21,[180.95238095238096|93.04029304029304|122.34432234432235|84.24908424908425|-3.663003663003663]
920,2026-02-02 14:21:21,[-35.8974358974359|-129.67032967032966|-171.42857142857142|-147.25274725274724|-167.03296703296704]
921,2026-02-02 14:21:21,[-169.23076923076923|-239.56043956043956|-175.0915750915751|-183.88278388278388|-225.64102564102564]
922,2026-02-02 14:21:21,[-157.50915750915752|-172.16117216117217|-160.43956043956044|-188.2783882783883|-213.91941391941393]
923,2026-02-02 14:21:21,[-148.71794871794873|-158.97435897435898|-135.53113553113553|-174.35897435897436|-182.41758241758242]
924,2026-02-02 14:21:21,[-167.03296703296704|-156.04395604395606|-148.71794871794873|-188.2783882783883|-172.16117216117217]
925,2026-02-02 14:21:21,[-153.1135531135531|-205.86080586080587|-105.49450549450549|-150.1831501831502|-192.67399267399267]
926,2026-02-02 14:21:21,[-178.02197802197801|-173.62637362637363|-110.62271062271063|-147.25274725274724|-179.48717948717947]
927,2026-02-02 14:21:21,[-126.73992673992674|-178.02197802197801|-166.3003663003663|-115.01831501831502|-107.6923076923077]
928,2026-02-02 14:21:21,[-125.27472527472527|-195.6043956043956|-134.7985347985348|-135.53113553113553|-142.85714285714286]
929,2026-02-02 14:21:21,[-66.66666666666667|-131.86813186813185|-77.65567765567765|-94.50549450549451|-125.27472527472527]
930,2026-02-02 14:21:21,[-87.17948717948718|-124.54212454212454|-113.55311355311355|-147.25274725274724|-148.71794871794873]
931,2026-02-02 14:21:21,[-112.08791208791209|-152.38095238095238|-122.34432234432235|-145.78754578754578|18.315018315018314]
932,2026-02-02 14:21:21,[424.90842490842493|671.7948717948718|416.1172161172161|-167.03296703296704|-397.0695970695971]
933,2026-02-02 14:21:21,[-208.7912087912088|-197.06959706959708|-117.94871794871794|-109.15750915750915|-131.13553113553112]
934,2026-02-02 14:21:22,[-100.36630036630036|-120.14652014652015|-65.2014652014652|-109.89010989010988|-71.7948717948718]
935,2026-02-02 14:21:22,[-18.315018315018314|-80.58608058608058|-33.6996336996337|-39.56043956043956|-76.92307692307692]
936,2026-02-02 14:21:22,[5.86080586080586|-16.84981684981685|30.036630036630036|37.362637362637365|27.83882783882784]
937,2026-02-02 14:21:22,[115.01831501831502|87.17948717948718|126.73992673992674|158.97435897435898|139.9267399267399]
938,2026-02-02 14:21:22,[175.0915750915751|147.98534798534797|166.3003663003663|148.71794871794873|52.014652014652015]
939,2026-02-02 14:21:22,[22.71062271062271|-64.46886446886447|-73.99267399267399|-132.6007326007326|-195.6043956043956]
940,2026-02-02 14:21:22,[-145.78754578754578|-169.23076923076923|-182.41758241758242|-193.4065934065934|-202.93040293040292]
941,2026-02-02 14:21:22,[-168.4981684981685|-198.53479853479854|-170.6959706959707|-191.2087912087912|-241.02564102564102]
942,2026-02-02 14:21:22,[-136.26373626373626|-164.10256410256412|-164.83516483516485|-181.6849816849817|-192.67399267399267]
943,2026-02-02 14:21:22,[-148.71794871794873|-199.26739926739927|-150.1831501831502|-150.1831501831502|-182.41758241758242]
944,2026-02-02 14:21:22,[-192.67399267399267|-213.1868131868132|-115.01831501831502|-131.13553113553112|-194.87179487179486]
945,2026-02-02 14:21:22,[-166.3003663003663|-216.11721611721612|-121.6117216117216|-145.78754578754578|-180.95238095238096]
946,2026-02-02 14:21:22,[-132.6007326007326|-192.67399267399267|-147.98534798534797|-122.34432234432235|-179.48717948717947]
947,2026-02-02 14:21:22,[-134.06593406593407|-182.41758241758242|-147.25274725274724|-109.15750915750915|-158.24175824175825]
948,2026-02-02 14:21:22,[-123.07692307692308|-141.3919413919414|-101.83150183150182|-98.9010989010989|-121.6117216117216]
949,2026-02-02 14:21:22,[-52.014652014652015|-113.55311355311355|-84.24908424908425|-148.71794871794873|-161.17216117216117]
950,2026-02-02 14:21:22,[-112.08791208791209|-169.23076923076923|-135.53113553113553|-110.62271062271063|-158.97435897435898]
951,2026-02-02 14:21:22,[-145.05494505494505|-108.42490842490842|295.23809523809524|701.0989010989011|558.974358974359]
952,2026-02-02 14:21:22,[50.54945054945055|-378.75457875457874|-293.7728937728938|-179.48717948717947|-142.85714285714286]
953,2026-02-02 14:21:22,[-73.99267399267399|-98.9010989010989|-117.94871794871794|-112.08791208791209|-77.65567765567765]
954,2026-02-02 14:21:22,[-40.29304029304029|-52.014652014652015|-71.06227106227107|-71.06227106227107|-49.81684981684982]
955,2026-02-02 14:21:22,[-21.245421245421245|-52.014652014652015|-16.117216117216117|12.454212454212454|-6.593406593406593]
956,2026-02-02 14:21:22,[19.78021978021978|57.875457875457876|98.16849816849818|101.83150183150182|81.31868131868131]
957,2026-02-02 14:21:22,[167.76556776556777|151.64835164835165|183.88278388278388|163.36996336996336|126.73992673992674]
958,2026-02-02 14:21:23,[180.21978021978023|75.45787545787546|57.142857142857146|-5.128205128205129|-71.06227106227107]
959,2026-02-02 14:21:23,[-100.36630036630036|-182.41758241758242|-160.43956043956044|-170.6959706959707|-202.93040293040292]
960,2026-02-02 14:21:23,[-156.04395604395606|-226.37362637362637|-174.35897435897436|-182.41758241758242|-191.2087912087912]
961,2026-02-02 14:21:23,[-164.83516483516485|-209.52380952380952|-167.76556776556777|-192.67399267399267|-172.8937728937729]
962,2026-02-02 14:21:23,[-154.57875457875457|-188.2783882783883|-160.43956043956044|-164.83516483516485|-171.42857142857142]
963,2026-02-02 14:21:23,[-127.47252747252747|-180.95238095238096|-178.02197802197801|-150.1831501831502|-178.02197802197801]
964,2026-02-02 14:21:23,[-129.67032967032966|-180.21978021978023|-169.96336996336996|-136.996336996337|-178.02197802197801]
965,2026-02-02 14:21:23,[-136.996336996337|-200.0|-126.73992673992674|-147.25274725274724|-194.13919413919413]
966,2026-02-02 14:21:23,[-141.3919413919414|-157.50915750915752|-123.07692307692308|-109.15750915750915|-169.23076923076923]
967,2026-02-02 14:21:23,[-117.94871794871794|-161.17216117216117|-119.41391941391942|-114.28571428571429|-123.07692307692308]
968,2026-02-02 14:21:23,[-73.99267399267399|-85.71428571428571|-95.23809523809524|-101.83150183150182|-154.57875457875457]
969,2026-02-02 14:21:23,[-120.87912087912088|-172.16117216117217|-125.27472527472527|-110.62271062271063|-172.16117216117217]
970,2026-02-02 14:21:23,[-145.78754578754578|-172.8937728937729|-3.663003663003663|331.86813186813185|670.3296703296703]
971,2026-02-02 14:21:23,[541.3919413919414|-84.98168498168498|-400.73260073260076|-271.79487179487177|-183.15018315018315]
972,2026-02-02 14:21:23,[-71.7948717948718|-136.996336996337|-98.9010989010989|-134.06593406593407|-103.2967032967033]
973,2026-02-02 14:21:23,[-27.106227106227106|-82.78388278388279|-76.92307692307692|-74.72527472527473|-76.19047619047619]
974,2026-02-02 14:21:23,[-32.967032967032964|-61.53846153846154|-37.362637362637365|3.663003663003663|-32.967032967032964]
975,2026-02-02 14:21:23,[46.15384615384615|12.454212454212454|38.827838827838825|93.04029304029304|65.2014652014652]
976,2026-02-02 14:21:23,[134.06593406593407|144.32234432234432|163.36996336996336|192.67399267399267|134.06593406593407]
977,2026-02-02 14:21:23,[163.36996336996336|91.57509157509158|60.8058608058608|63.00366300366301|-32.234432234432234]
978,2026-02-02 14:21:23,[-70.32967032967034|-147.98534798534797|-172.16117216117217|-203.66300366300365|-178.02197802197801]
979,2026-02-02 14:21:23,[-144.32234432234432|-194.13919413919413|-216.84981684981685|-183.88278388278388|-208.05860805860806]
