Packet_Number,Timestamp,Data
1,2026-01-31 19:26:06,[-49.08424908424909|-41.02564102564103|-32.234432234432234|-28.571428571428573|-13.91941391941392]
2,2026-01-31 19:26:06,[-16.84981684981685|-3.663003663003663|12.454212454212454|13.91941391941392|43.223443223443226]
3,2026-01-31 19:26:06,[56.41025641025641|78.3882783882784|104.76190476190476|128.2051282051282|166.3003663003663]
4,2026-01-31 19:26:06,[191.94139194139194|216.11721611721612|241.75824175824175|233.6996336996337|238.0952380952381]
5,2026-01-31 19:26:06,[213.91941391941393|191.2087912087912|148.71794871794873|50.54945054945055|34.43223443223443]
6,2026-01-31 19:26:06,[-36.63003663003663|-88.64468864468864|-129.67032967032966|-173.62637362637363|-189.74358974358975]
7,2026-01-31 19:26:06,[-209.52380952380952|-216.84981684981685|-218.3150183150183|-224.9084249084249|-213.91941391941393]
8,2026-01-31 19:26:06,[-213.91941391941393|-213.1868131868132|-205.12820512820514|-241.02564102564102|-194.13919413919413]
9,2026-01-31 19:26:06,[-194.13919413919413|-193.4065934065934|-191.2087912087912|-194.13919413919413|-180.95238095238096]
10,2026-01-31 19:26:06,[-188.2783882783883|-183.88278388278388|-180.95238095238096|-191.2087912087912|-179.48717948717947]
11,2026-01-31 19:26:06,[-182.41758241758242|-182.41758241758242|-188.2783882783883|-224.9084249084249|-180.95238095238096]
12,2026-01-31 19:26:06,[-188.2783882783883|-180.95238095238096|-180.21978021978023|-183.88278388278388|-172.16117216117217]
13,2026-01-31 19:26:06,[-178.02197802197801|-169.96336996336996|-166.3003663003663|-177.28937728937728|-169.23076923076923]
14,2026-01-31 19:26:06,[-170.6959706959707|-167.03296703296704|-158.24175824175825|-201.46520146520146|-154.57875457875457]
15,2026-01-31 19:26:06,[-161.9047619047619|-158.97435897435898|-153.1135531135531|-156.7765567765568|-148.71794871794873]
16,2026-01-31 19:26:06,[-144.32234432234432|-141.3919413919414|-135.53113553113553|-145.78754578754578|-142.85714285714286]
17,2026-01-31 19:26:06,[-141.3919413919414|-141.3919413919414|-132.6007326007326|-164.83516483516485|-119.41391941391942]
18,2026-01-31 19:26:06,[-122.34432234432235|-121.6117216117216|-119.41391941391942|-117.94871794871794|-108.42490842490842]
19,2026-01-31 19:26:06,[-115.01831501831502|-111.35531135531136|-101.83150183150182|-108.42490842490842|-106.22710622710623]
20,2026-01-31 19:26:06,[-109.15750915750915|-106.95970695970696|-109.15750915750915|-144.32234432234432|-73.26007326007326]
21,2026-01-31 19:26:06,[-72.52747252747253|-75.45787545787546|-82.78388278388279|-109.15750915750915|-98.9010989010989]
22,2026-01-31 19:26:06,[-95.97069597069597|-94.50549450549451|-85.71428571428571|-101.83150183150182|-95.23809523809524]
23,2026-01-31 19:26:06,[-107.6923076923077|-90.10989010989012|38.827838827838825|327.4725274725275|677.6556776556777]
24,2026-01-31 19:26:06,[449.0842490842491|-32.234432234432234|-388.27838827838826|-273.2600732600733|-88.64468864468864]
25,2026-01-31 19:26:06,[-72.52747252747253|-73.26007326007326|-53.47985347985348|-54.94505494505494|-49.08424908424909]
26,2026-01-31 19:26:07,[-47.61904761904762|-40.29304029304029|-37.362637362637365|-75.45787545787546|-21.245421245421245]
27,2026-01-31 19:26:07,[-24.90842490842491|-15.384615384615385|4.395604395604396|12.454212454212454|29.304029304029303]
28,2026-01-31 19:26:07,[41.02564102564103|65.2014652014652|88.64468864468864|107.6923076923077|135.53113553113553]
29,2026-01-31 19:26:07,[161.9047619047619|193.4065934065934|210.25641025641025|203.66300366300365|226.37362637362637]
30,2026-01-31 19:26:07,[210.25641025641025|191.2087912087912|160.43956043956044|106.95970695970696|56.41025641025641]
31,2026-01-31 19:26:07,[-9.523809523809524|-65.2014652014652|-112.08791208791209|-158.97435897435898|-182.41758241758242]
32,2026-01-31 19:26:07,[-208.05860805860806|-219.04761904761904|-221.24542124542126|-249.8168498168498|-220.51282051282053]
33,2026-01-31 19:26:07,[-235.16483516483515|-220.51282051282053|-214.65201465201466|-220.51282051282053|-208.7912087912088]
34,2026-01-31 19:26:07,[-207.32600732600733|-208.05860805860806|-201.46520146520146|-200.0|-189.74358974358975]
35,2026-01-31 19:26:07,[-200.73260073260073|-202.1978021978022|-202.1978021978022|-226.37362637362637|-204.3956043956044]
36,2026-01-31 19:26:07,[-213.91941391941393|-216.84981684981685|-206.5934065934066|-206.5934065934066|-197.06959706959708]
37,2026-01-31 19:26:07,[-201.46520146520146|-200.0|-195.6043956043956|-194.13919413919413|-183.88278388278388]
38,2026-01-31 19:26:07,[-191.2087912087912|-188.2783882783883|-180.95238095238096|-196.33699633699635|-169.96336996336996]
39,2026-01-31 19:26:07,[-176.55677655677655|-173.62637362637363|-168.4981684981685|-178.02197802197801|-167.03296703296704]
40,2026-01-31 19:26:07,[-169.23076923076923|-161.9047619047619|-153.1135531135531|-160.43956043956044|-155.3113553113553]
41,2026-01-31 19:26:07,[-157.50915750915752|-149.45054945054946|-147.25274725274724|-160.43956043956044|-129.67032967032966]
42,2026-01-31 19:26:07,[-142.85714285714286|-145.78754578754578|-136.996336996337|-142.85714285714286|-129.67032967032966]
43,2026-01-31 19:26:07,[-134.06593406593407|-132.6007326007326|-120.87912087912088|-125.27472527472527|-113.55311355311355]
44,2026-01-31 19:26:07,[-110.62271062271063|-103.2967032967033|-106.22710622710623|-113.55311355311355|-110.62271062271063]
45,2026-01-31 19:26:07,[-110.62271062271063|-76.92307692307692|-63.73626373626374|-76.19047619047619|-76.19047619047619]
46,2026-01-31 19:26:07,[-99.63369963369964|-109.15750915750915|-106.22710622710623|-112.08791208791209|-106.22710622710623]
47,2026-01-31 19:26:07,[-105.49450549450549|-102.56410256410257|-110.62271062271063|-125.27472527472527|-9.523809523809524]
48,2026-01-31 19:26:07,[273.992673992674|648.3516483516484|529.6703296703297|23.44322344322344|-389.7435897435897]
49,2026-01-31 19:26:07,[-294.5054945054945|-98.9010989010989|-70.32967032967034|-73.99267399267399|-54.94505494505494]
50,2026-01-31 19:26:07,[-53.47985347985348|-50.54945054945055|-40.29304029304029|-50.54945054945055|-29.304029304029303]
51,2026-01-31 19:26:08,[-28.571428571428573|-21.245421245421245|-12.454212454212454|-15.384615384615385|6.593406593406593]
52,2026-01-31 19:26:08,[13.186813186813186|30.036630036630036|49.08424908424909|56.41025641025641|88.64468864468864]
53,2026-01-31 19:26:08,[110.62271062271063|139.19413919413918|170.6959706959707|180.21978021978023|230.76923076923077]
54,2026-01-31 19:26:08,[233.6996336996337|240.2930402930403|242.49084249084248|214.65201465201466|193.4065934065934]
55,2026-01-31 19:26:08,[138.46153846153845|82.05128205128206|21.245421245421245|-53.47985347985348|-90.10989010989012]
56,2026-01-31 19:26:08,[-132.6007326007326|-164.83516483516485|-182.41758241758242|-219.78021978021977|-201.46520146520146]
57,2026-01-31 19:26:08,[-217.58241758241758|-220.51282051282053|-217.58241758241758|-219.78021978021977|-207.32600732600733]
58,2026-01-31 19:26:08,[-202.93040293040292|-194.13919413919413|-192.67399267399267|-197.06959706959708|-191.2087912087912]
59,2026-01-31 19:26:08,[-189.74358974358975|-188.2783882783883|-180.95238095238096|-205.86080586080587|-180.95238095238096]
60,2026-01-31 19:26:08,[-192.67399267399267|-192.67399267399267|-183.15018315018315|-189.74358974358975|-191.2087912087912]
61,2026-01-31 19:26:08,[-192.67399267399267|-189.74358974358975|-188.2783882783883|-192.67399267399267|-183.15018315018315]
62,2026-01-31 19:26:08,[-192.67399267399267|-180.95238095238096|-172.16117216117217|-196.33699633699635|-167.76556776556777]
63,2026-01-31 19:26:08,[-173.62637362637363|-171.42857142857142|-159.7069597069597|-167.76556776556777|-158.24175824175825]
64,2026-01-31 19:26:08,[-160.43956043956044|-157.50915750915752|-153.1135531135531|-159.7069597069597|-153.1135531135531]
65,2026-01-31 19:26:08,[-157.50915750915752|-156.7765567765568|-156.04395604395606|-167.76556776556777|-136.996336996337]
66,2026-01-31 19:26:08,[-142.85714285714286|-143.5897435897436|-135.53113553113553|-136.26373626373626|-123.07692307692308]
67,2026-01-31 19:26:08,[-123.80952380952381|-123.80952380952381|-123.80952380952381|-129.67032967032966|-123.07692307692308]
68,2026-01-31 19:26:08,[-121.6117216117216|-121.6117216117216|-118.68131868131869|-136.996336996337|-107.6923076923077]
69,2026-01-31 19:26:08,[-112.08791208791209|-115.01831501831502|-109.15750915750915|-113.55311355311355|-106.22710622710623]
70,2026-01-31 19:26:08,[-112.08791208791209|-112.08791208791209|-112.08791208791209|-112.08791208791209|-71.7948717948718]
71,2026-01-31 19:26:08,[-64.46886446886447|-75.45787545787546|-82.78388278388279|-123.07692307692308|-108.42490842490842]
72,2026-01-31 19:26:08,[-115.01831501831502|-112.08791208791209|-107.6923076923077|-120.87912087912088|-109.15750915750915]
73,2026-01-31 19:26:08,[-122.34432234432235|-127.47252747252747|-20.512820512820515|294.5054945054945|679.1208791208791]
74,2026-01-31 19:26:08,[526.7399267399268|5.128205128205129|-428.57142857142856|-321.61172161172163|-109.89010989010988]
75,2026-01-31 19:26:09,[-98.9010989010989|-94.50549450549451|-77.65567765567765|-79.85347985347985|-71.7948717948718]
76,2026-01-31 19:26:09,[-65.93406593406593|-62.27106227106227|-50.54945054945055|-52.014652014652015|-37.362637362637365]
77,2026-01-31 19:26:09,[-29.304029304029303|-18.315018315018314|-6.593406593406593|-15.384615384615385|19.047619047619047]
78,2026-01-31 19:26:09,[25.641025641025642|44.688644688644686|78.3882783882784|103.2967032967033|134.06593406593407]
79,2026-01-31 19:26:09,[157.50915750915752|186.8131868131868|214.65201465201466|220.51282051282053|233.6996336996337]
80,2026-01-31 19:26:09,[225.64102564102564|208.05860805860806|174.35897435897436|107.6923076923077|69.59706959706959]
81,2026-01-31 19:26:09,[-4.395604395604396|-65.2014652014652|-115.01831501831502|-169.23076923076923|-197.06959706959708]
82,2026-01-31 19:26:09,[-216.84981684981685|-227.83882783882783|-228.57142857142858|-243.95604395604394|-235.89743589743588]
83,2026-01-31 19:26:09,[-235.89743589743588|-228.57142857142858|-214.65201465201466|-220.51282051282053|-200.0]
84,2026-01-31 19:26:09,[-206.5934065934066|-201.46520146520146|-190.47619047619048|-195.6043956043956|-191.2087912087912]
85,2026-01-31 19:26:09,[-194.13919413919413|-195.6043956043956|-188.2783882783883|-194.87179487179486|-189.74358974358975]
86,2026-01-31 19:26:09,[-201.46520146520146|-203.66300366300365|-200.0|-214.65201465201466|-189.74358974358975]
87,2026-01-31 19:26:09,[-200.0|-197.06959706959708|-192.67399267399267|-197.06959706959708|-191.2087912087912]
88,2026-01-31 19:26:09,[-188.2783882783883|-178.02197802197801|-172.8937728937729|-181.6849816849817|-176.55677655677655]
89,2026-01-31 19:26:09,[-170.6959706959707|-164.83516483516485|-156.7765567765568|-173.62637362637363|-156.04395604395606]
90,2026-01-31 19:26:09,[-156.7765567765568|-153.1135531135531|-147.25274725274724|-147.25274725274724|-142.85714285714286]
91,2026-01-31 19:26:09,[-145.78754578754578|-145.78754578754578|-142.12454212454213|-144.32234432234432|-132.6007326007326]
92,2026-01-31 19:26:09,[-132.6007326007326|-133.33333333333334|-129.67032967032966|-141.3919413919414|-118.68131868131869]
93,2026-01-31 19:26:09,[-126.00732600732601|-131.13553113553112|-120.87912087912088|-120.87912087912088|-115.01831501831502]
94,2026-01-31 19:26:09,[-119.41391941391942|-112.82051282051282|-107.6923076923077|-115.01831501831502|-110.62271062271063]
95,2026-01-31 19:26:09,[-117.94871794871794|-110.62271062271063|-104.02930402930403|-115.01831501831502|-97.43589743589743]
96,2026-01-31 19:26:09,[-107.6923076923077|-110.62271062271063|-93.77289377289377|-76.92307692307692|-65.93406593406593]
97,2026-01-31 19:26:09,[-76.92307692307692|-94.50549450549451|-109.15750915750915|-112.08791208791209|-106.22710622710623]
98,2026-01-31 19:26:09,[-112.08791208791209|-110.62271062271063|-105.49450549450549|-112.08791208791209|-113.55311355311355]
99,2026-01-31 19:26:09,[-102.56410256410257|44.688644688644686|380.95238095238096|635.1648351648352|384.61538461538464]
100,2026-01-31 19:26:09,[-97.43589743589743|-413.9194139194139|-255.67765567765568|-106.22710622710623|-71.06227106227107]
101,2026-01-31 19:26:10,[-78.3882783882784|-71.06227106227107|-60.07326007326007|-76.19047619047619|-53.47985347985348]
102,2026-01-31 19:26:10,[-54.21245421245421|-52.014652014652015|-38.095238095238095|-38.827838827838825|-25.641025641025642]
103,2026-01-31 19:26:10,[-19.047619047619047|-6.593406593406593|12.454212454212454|16.84981684981685|38.827838827838825]
104,2026-01-31 19:26:10,[53.47985347985348|76.92307692307692|100.36630036630036|112.08791208791209|163.36996336996336]
105,2026-01-31 19:26:10,[193.4065934065934|210.25641025641025|227.83882783882783|219.78021978021977|217.58241758241758]
106,2026-01-31 19:26:10,[196.33699633699635|165.56776556776558|115.01831501831502|41.02564102564103|-13.91941391941392]
107,2026-01-31 19:26:10,[-76.19047619047619|-123.07692307692308|-160.43956043956044|-207.32600732600733|-200.0]
108,2026-01-31 19:26:10,[-217.58241758241758|-229.3040293040293|-227.83882783882783|-235.16483516483515|-219.04761904761904]
109,2026-01-31 19:26:10,[-220.51282051282053|-213.1868131868132|-203.66300366300365|-205.86080586080587|-194.13919413919413]
110,2026-01-31 19:26:10,[-199.26739926739927|-200.0|-191.2087912087912|-208.7912087912088|-189.01098901098902]
111,2026-01-31 19:26:10,[-197.06959706959708|-195.6043956043956|-191.2087912087912|-201.46520146520146|-196.33699633699635]
112,2026-01-31 19:26:10,[-200.0|-202.93040293040292|-194.87179487179486|-207.32600732600733|-197.06959706959708]
113,2026-01-31 19:26:10,[-195.6043956043956|-192.67399267399267|-188.2783882783883|-211.7216117216117|-181.6849816849817]
114,2026-01-31 19:26:10,[-192.67399267399267|-188.2783882783883|-180.21978021978023|-181.6849816849817|-172.8937728937729]
115,2026-01-31 19:26:10,[-174.35897435897436|-169.23076923076923|-164.83516483516485|-170.6959706959707|-165.56776556776558]
116,2026-01-31 19:26:10,[-164.10256410256412|-154.57875457875457|-148.71794871794873|-156.04395604395606|-144.32234432234432]
117,2026-01-31 19:26:10,[-147.25274725274724|-144.32234432234432|-135.53113553113553|-146.5201465201465|-146.5201465201465]
118,2026-01-31 19:26:10,[-145.78754578754578|-136.996336996337|-132.6007326007326|-142.85714285714286|-135.53113553113553]
119,2026-01-31 19:26:10,[-136.996336996337|-126.73992673992674|-125.27472527472527|-142.85714285714286|-111.35531135531136]
120,2026-01-31 19:26:10,[-122.34432234432235|-120.87912087912088|-107.6923076923077|-120.87912087912088|-110.62271062271063]
121,2026-01-31 19:26:10,[-109.15750915750915|-112.08791208791209|-106.22710622710623|-117.94871794871794|-96.7032967032967]
122,2026-01-31 19:26:10,[-71.06227106227107|-68.13186813186813|-66.66666666666667|-95.97069597069597|-88.64468864468864]
123,2026-01-31 19:26:10,[-107.6923076923077|-103.2967032967033|-95.23809523809524|-98.16849816849818|-87.91208791208791]
124,2026-01-31 19:26:10,[-94.50549450549451|-110.62271062271063|-90.10989010989012|40.29304029304029|408.05860805860806]
125,2026-01-31 19:26:10,[714.2857142857143|416.1172161172161|-106.22710622710623|-451.28205128205127|-224.9084249084249]
126,2026-01-31 19:26:11,[-95.97069597069597|-87.17948717948718|-71.06227106227107|-73.99267399267399|-64.46886446886447]
127,2026-01-31 19:26:11,[-61.53846153846154|-56.41025641025641|-38.827838827838825|-49.08424908424909|-31.501831501831504]
128,2026-01-31 19:26:11,[-28.571428571428573|-20.512820512820515|-12.454212454212454|-19.78021978021978|10.989010989010989]
129,2026-01-31 19:26:11,[22.71062271062271|40.29304029304029|66.66666666666667|84.98168498168498|116.48351648351648]
130,2026-01-31 19:26:11,[147.25274725274724|172.8937728937729|202.93040293040292|210.25641025641025|230.76923076923077]
131,2026-01-31 19:26:11,[237.36263736263737|226.37362637362637|202.1978021978022|148.71794871794873|123.80952380952381]
132,2026-01-31 19:26:11,[52.014652014652015|-19.78021978021978|-68.13186813186813|-133.33333333333334|-164.83516483516485]
133,2026-01-31 19:26:11,[-195.6043956043956|-216.11721611721612|-220.51282051282053|-238.82783882783883|-229.3040293040293]
134,2026-01-31 19:26:11,[-230.76923076923077|-228.57142857142858|-216.84981684981685|-230.76923076923077|-205.12820512820514]
135,2026-01-31 19:26:11,[-205.12820512820514|-205.86080586080587|-200.0|-201.46520146520146|-191.2087912087912]
136,2026-01-31 19:26:11,[-193.4065934065934|-192.67399267399267|-180.95238095238096|-194.13919413919413|-179.48717948717947]
137,2026-01-31 19:26:11,[-188.2783882783883|-194.13919413919413|-188.2783882783883|-201.46520146520146|-188.2783882783883]
138,2026-01-31 19:26:11,[-197.06959706959708|-201.46520146520146|-201.46520146520146|-202.93040293040292|-191.94139194139194]
139,2026-01-31 19:26:11,[-189.74358974358975|-182.41758241758242|-173.62637362637363|-188.2783882783883|-176.55677655677655]
140,2026-01-31 19:26:11,[-172.16117216117217|-172.16117216117217|-167.03296703296704|-181.6849816849817|-156.04395604395606]
141,2026-01-31 19:26:11,[-161.9047619047619|-165.56776556776558|-158.24175824175825|-158.97435897435898|-147.98534798534797]
142,2026-01-31 19:26:11,[-153.1135531135531|-150.1831501831502|-136.996336996337|-154.57875457875457|-145.78754578754578]
143,2026-01-31 19:26:11,[-145.05494505494505|-136.26373626373626|-135.53113553113553|-153.84615384615384|-122.34432234432235]
144,2026-01-31 19:26:11,[-126.73992673992674|-126.73992673992674|-117.94871794871794|-123.80952380952381|-114.28571428571429]
145,2026-01-31 19:26:11,[-115.01831501831502|-112.08791208791209|-107.6923076923077|-119.41391941391942|-106.22710622710623]
146,2026-01-31 19:26:11,[-115.01831501831502|-113.55311355311355|-112.08791208791209|-126.00732600732601|-101.83150183150182]
147,2026-01-31 19:26:11,[-85.71428571428571|-78.3882783882784|-79.12087912087912|-94.50549450549451|-100.36630036630036]
148,2026-01-31 19:26:11,[-109.15750915750915|-103.2967032967033|-87.91208791208791|-103.2967032967033|-94.50549450549451]
149,2026-01-31 19:26:11,[-95.23809523809524|-108.42490842490842|-100.36630036630036|-3.663003663003663|359.7069597069597]
150,2026-01-31 19:26:12,[714.2857142857143|513.5531135531136|13.91941391941392|-407.3260073260073|-282.05128205128204]
151,2026-01-31 19:26:12,[-98.9010989010989|-71.06227106227107|-67.3992673992674|-61.53846153846154|-53.47985347985348]
152,2026-01-31 19:26:12,[-53.47985347985348|-49.81684981684982|-35.8974358974359|-50.54945054945055|-28.571428571428573]
153,2026-01-31 19:26:12,[-25.641025641025642|-19.78021978021978|-9.523809523809524|-6.593406593406593|15.384615384615385]
154,2026-01-31 19:26:12,[28.571428571428573|49.81684981684982|73.99267399267399|86.44688644688645|116.48351648351648]
155,2026-01-31 19:26:12,[145.78754578754578|178.75457875457874|208.7912087912088|210.25641025641025|252.01465201465203]
156,2026-01-31 19:26:12,[251.28205128205127|233.6996336996337|216.11721611721612|170.6959706959707|131.13553113553112]
157,2026-01-31 19:26:12,[65.2014652014652|-2.93040293040293|-53.47985347985348|-113.55311355311355|-149.45054945054946]
158,2026-01-31 19:26:12,[-178.02197802197801|-202.93040293040292|-205.86080586080587|-234.43223443223442|-205.86080586080587]
159,2026-01-31 19:26:12,[-216.84981684981685|-219.04761904761904|-205.86080586080587|-207.32600732600733|-197.06959706959708]
160,2026-01-31 19:26:12,[-195.6043956043956|-193.4065934065934|-181.6849816849817|-192.67399267399267|-179.48717948717947]
161,2026-01-31 19:26:12,[-181.6849816849817|-183.15018315018315|-176.55677655677655|-200.73260073260073|-173.62637362637363]
162,2026-01-31 19:26:12,[-187.54578754578753|-194.13919413919413|-188.2783882783883|-192.67399267399267|-180.95238095238096]
163,2026-01-31 19:26:12,[-189.01098901098902|-181.6849816849817|-179.48717948717947|-192.67399267399267|-180.21978021978023]
164,2026-01-31 19:26:12,[-179.48717948717947|-180.21978021978023|-179.48717948717947|-194.87179487179486|-169.23076923076923]
165,2026-01-31 19:26:12,[-176.55677655677655|-171.42857142857142|-166.3003663003663|-167.03296703296704|-154.57875457875457]
166,2026-01-31 19:26:12,[-158.24175824175825|-161.9047619047619|-158.24175824175825|-158.97435897435898|-146.5201465201465]
167,2026-01-31 19:26:12,[-147.98534798534797|-145.78754578754578|-142.85714285714286|-158.97435897435898|-132.6007326007326]
168,2026-01-31 19:26:12,[-142.85714285714286|-136.996336996337|-133.33333333333334|-146.5201465201465|-134.06593406593407]
169,2026-01-31 19:26:12,[-132.6007326007326|-131.86813186813185|-126.73992673992674|-141.3919413919414|-132.6007326007326]
170,2026-01-31 19:26:12,[-135.53113553113553|-143.5897435897436|-131.13553113553112|-130.4029304029304|-96.7032967032967]
171,2026-01-31 19:26:12,[-103.2967032967033|-110.62271062271063|-123.07692307692308|-134.7985347985348|-126.73992673992674]
172,2026-01-31 19:26:12,[-126.73992673992674|-131.13553113553112|-125.27472527472527|-131.13553113553112|-126.73992673992674]
173,2026-01-31 19:26:12,[-123.80952380952381|-27.106227106227106|260.0732600732601|619.047619047619|523.8095238095239]
174,2026-01-31 19:26:12,[41.75824175824176|-400.73260073260076|-341.3919413919414|-136.26373626373626|-88.64468864468864]
175,2026-01-31 19:26:12,[-95.23809523809524|-84.24908424908425|-66.66666666666667|-76.19047619047619|-71.06227106227107]
176,2026-01-31 19:26:13,[-65.2014652014652|-63.73626373626374|-51.282051282051285|-59.34065934065934|-30.036630036630036]
177,2026-01-31 19:26:13,[-27.106227106227106|-20.512820512820515|-2.197802197802198|12.454212454212454|32.967032967032964]
178,2026-01-31 19:26:13,[60.07326007326007|73.99267399267399|106.22710622710623|123.80952380952381|167.03296703296704]
179,2026-01-31 19:26:13,[196.33699633699635|217.58241758241758|232.23443223443223|219.04761904761904|229.3040293040293]
180,2026-01-31 19:26:13,[204.3956043956044|167.03296703296704|115.01831501831502|41.75824175824176|-16.84981684981685]
181,2026-01-31 19:26:13,[-76.92307692307692|-123.80952380952381|-160.43956043956044|-201.46520146520146|-211.7216117216117]
182,2026-01-31 19:26:13,[-225.64102564102564|-227.83882783882783|-223.44322344322345|-243.95604395604394|-220.51282051282053]
183,2026-01-31 19:26:13,[-224.9084249084249|-217.58241758241758|-214.65201465201466|-217.58241758241758|-205.12820512820514]
184,2026-01-31 19:26:13,[-196.33699633699635|-195.6043956043956|-189.74358974358975|-199.26739926739927|-182.41758241758242]
185,2026-01-31 19:26:13,[-183.88278388278388|-188.2783882783883|-191.2087912087912|-212.45421245421247|-183.88278388278388]
186,2026-01-31 19:26:13,[-194.13919413919413|-200.0|-194.87179487179486|-203.66300366300365|-195.6043956043956]
187,2026-01-31 19:26:13,[-195.6043956043956|-195.6043956043956|-181.6849816849817|-181.6849816849817|-173.62637362637363]
188,2026-01-31 19:26:13,[-176.55677655677655|-178.02197802197801|-170.6959706959707|-188.2783882783883|-160.43956043956044]
189,2026-01-31 19:26:13,[-169.23076923076923|-169.23076923076923|-169.23076923076923|-171.42857142857142|-160.43956043956044]
190,2026-01-31 19:26:13,[-160.43956043956044|-158.24175824175825|-154.57875457875457|-153.1135531135531|-150.1831501831502]
191,2026-01-31 19:26:13,[-150.1831501831502|-150.1831501831502|-146.5201465201465|-156.04395604395606|-141.3919413919414]
192,2026-01-31 19:26:13,[-153.1135531135531|-164.83516483516485|-169.23076923076923|-150.1831501831502|-137.72893772893772]
193,2026-01-31 19:26:13,[-112.82051282051282|-100.36630036630036|-110.62271062271063|-183.15018315018315|-115.01831501831502]
194,2026-01-31 19:26:13,[-32.967032967032964|-54.94505494505494|-81.31868131868131|-88.64468864468864|-41.75824175824176]
195,2026-01-31 19:26:13,[29.304029304029303|68.13186813186813|10.989010989010989|-18.315018315018314|-129.67032967032966]
196,2026-01-31 19:26:13,[-191.94139194139194|-176.55677655677655|-169.23076923076923|-194.13919413919413|-183.15018315018315]
197,2026-01-31 19:26:13,[-149.45054945054946|-157.50915750915752|-75.45787545787546|155.3113553113553|627.8388278388278]
198,2026-01-31 19:26:13,[753.8461538461538|334.7985347985348|-191.94139194139194|-426.3736263736264|-177.28937728937728]
199,2026-01-31 19:26:13,[-24.175824175824175|-24.175824175824175|-52.747252747252745|-84.98168498168498|-88.64468864468864]
200,2026-01-31 19:26:14,[-102.56410256410257|-41.75824175824176|-59.34065934065934|-75.45787545787546|-2.197802197802198]
201,2026-01-31 19:26:14,[52.747252747252745|44.688644688644686|30.036630036630036|54.21245421245421|100.36630036630036]
202,2026-01-31 19:26:14,[134.06593406593407|180.95238095238096|225.64102564102564|172.16117216117217|154.57875457875457]
203,2026-01-31 19:26:14,[162.63736263736263|178.02197802197801|205.12820512820514|190.47619047619048|210.25641025641025]
204,2026-01-31 19:26:14,[216.11721611721612|206.5934065934066|186.08058608058607|116.48351648351648|76.92307692307692]
205,2026-01-31 19:26:14,[41.75824175824176|-5.128205128205129|-76.92307692307692|-136.996336996337|-154.57875457875457]
206,2026-01-31 19:26:14,[-157.50915750915752|-194.13919413919413|-218.3150183150183|-252.74725274725276|-260.0732600732601]
207,2026-01-31 19:26:14,[-331.86813186813185|-361.17216117216117|-330.4029304029304|-342.85714285714283|-356.7765567765568]
208,2026-01-31 19:26:14,[-340.65934065934067|-337.72893772893775|-310.6227106227106|-242.49084249084248|-202.93040293040292]
209,2026-01-31 19:26:14,[-216.84981684981685|-217.58241758241758|-181.6849816849817|-197.06959706959708|-142.85714285714286]
210,2026-01-31 19:26:14,[-183.88278388278388|-226.37362637362637|-250.54945054945054|-241.02564102564102|-283.5164835164835]
211,2026-01-31 19:26:14,[-282.7838827838828|-294.5054945054945|-298.16849816849816|-328.93772893772893|-293.7728937728938]
212,2026-01-31 19:26:14,[-290.84249084249086|-323.0769230769231|-308.42490842490844|-227.1062271062271|-192.67399267399267]
213,2026-01-31 19:26:14,[-248.35164835164835|-216.11721611721612|-182.41758241758242|-172.8937728937729|-122.34432234432235]
214,2026-01-31 19:26:14,[-134.7985347985348|-132.6007326007326|-115.75091575091575|-160.43956043956044|-165.56776556776558]
215,2026-01-31 19:26:14,[-167.76556776556777|-220.51282051282053|-229.3040293040293|-243.2234432234432|-216.11721611721612]
216,2026-01-31 19:26:14,[-219.78021978021977|-220.51282051282053|-95.97069597069597|-160.43956043956044|-70.32967032967034]
217,2026-01-31 19:26:14,[-126.73992673992674|-109.15750915750915|-64.46886446886447|-95.97069597069597|-103.2967032967033]
218,2026-01-31 19:26:14,[-79.85347985347985|-119.41391941391942|-103.2967032967033|-126.73992673992674|-127.47252747252747]
219,2026-01-31 19:26:14,[-7.326007326007326|260.8058608058608|643.9560439560439|622.7106227106227|27.83882783882784]
220,2026-01-31 19:26:14,[-487.1794871794872|-535.5311355311355|-196.33699633699635|-28.571428571428573|-21.245421245421245]
221,2026-01-31 19:26:14,[-38.827838827838825|-28.571428571428573|-18.315018315018314|-15.384615384615385|8.058608058608058]
222,2026-01-31 19:26:14,[-31.501831501831504|-5.128205128205129|-2.197802197802198|28.571428571428573|22.71062271062271]
223,2026-01-31 19:26:14,[20.512820512820515|55.67765567765568|12.454212454212454|10.989010989010989|45.42124542124542]
224,2026-01-31 19:26:14,[69.59706959706959|44.688644688644686|237.36263736263737|289.3772893772894|299.6336996336996]
225,2026-01-31 19:26:15,[301.0989010989011|306.959706959707|347.98534798534797|339.1941391941392|312.8205128205128]
226,2026-01-31 19:26:15,[255.67765567765568|180.21978021978023|108.42490842490842|79.85347985347985|-107.6923076923077]
227,2026-01-31 19:26:15,[-147.98534798534797|-216.11721611721612|-260.8058608058608|-287.9120879120879|-352.3809523809524]
228,2026-01-31 19:26:15,[-284.98168498168496|-287.9120879120879|-273.2600732600733|-201.46520146520146|-149.45054945054946]
229,2026-01-31 19:26:15,[-211.7216117216117|-216.11721611721612|-252.01465201465203|-213.1868131868132|-172.8937728937729]
230,2026-01-31 19:26:15,[-156.04395604395606|-148.71794871794873|-226.37362637362637|-288.64468864468864|-349.45054945054943]
231,2026-01-31 19:26:15,[-314.2857142857143|-242.49084249084248|-226.37362637362637|-200.73260073260073|-208.7912087912088]
232,2026-01-31 19:26:15,[-153.1135531135531|-87.91208791208791|-128.2051282051282|-315.01831501831504|-442.4908424908425]
233,2026-01-31 19:26:15,[-332.6007326007326|-219.78021978021977|-202.93040293040292|-295.97069597069594|-129.67032967032966]
234,2026-01-31 19:26:15,[-54.94505494505494|-95.23809523809524|-106.22710622710623|-154.57875457875457|-97.43589743589743]
235,2026-01-31 19:26:15,[-143.5897435897436|-227.83882783882783|-254.94505494505495|-254.21245421245422|-241.02564102564102]
236,2026-01-31 19:26:15,[-191.2087912087912|-230.03663003663004|-336.2637362637363|-290.84249084249086|-158.97435897435898]
237,2026-01-31 19:26:15,[-39.56043956043956|-36.63003663003663|-102.56410256410257|-40.29304029304029|-100.36630036630036]
238,2026-01-31 19:26:15,[-18.315018315018314|195.6043956043956|576.5567765567765|909.1575091575091|413.9194139194139]
239,2026-01-31 19:26:15,[-311.35531135531136|-706.2271062271062|-567.7655677655678|-314.2857142857143|-249.08424908424908]
240,2026-01-31 19:26:15,[-220.51282051282053|-179.48717948717947|-170.6959706959707|-173.62637362637363|-18.315018315018314]
241,2026-01-31 19:26:15,[15.384615384615385|93.04029304029304|119.41391941391942|-5.128205128205129|-16.117216117216117]
242,2026-01-31 19:26:15,[40.29304029304029|38.095238095238095|54.94505494505494|113.55311355311355|67.3992673992674]
243,2026-01-31 19:26:15,[31.501831501831504|-25.641025641025642|79.85347985347985|158.97435897435898|208.05860805860806]
244,2026-01-31 19:26:15,[229.3040293040293|221.97802197802199|202.93040293040292|239.56043956043956|336.2637362637363]
245,2026-01-31 19:26:15,[257.14285714285717|265.9340659340659|103.2967032967033|-52.747252747252745|125.27472527472527]
246,2026-01-31 19:26:15,[120.87912087912088|-50.54945054945055|-208.7912087912088|-276.1904761904762|-259.34065934065933]
247,2026-01-31 19:26:15,[-449.0842490842491|-525.2747252747253|-452.01465201465203|-438.82783882783883|-335.53113553113553]
248,2026-01-31 19:26:15,[-299.6336996336996|-283.5164835164835|-147.25274725274724|-148.71794871794873|-24.175824175824175]
249,2026-01-31 19:26:15,[-68.13186813186813|-98.9010989010989|-85.71428571428571|-110.62271062271063|-117.94871794871794]
250,2026-01-31 19:26:15,[-105.49450549450549|-142.85714285714286|-192.67399267399267|-220.51282051282053|-323.0769230769231]
251,2026-01-31 19:26:16,[-315.01831501831504|-243.2234432234432|-267.3992673992674|-321.61172161172163|-283.5164835164835]
252,2026-01-31 19:26:16,[-229.3040293040293|-225.64102564102564|-193.4065934065934|-219.78021978021977|-228.57142857142858]
253,2026-01-31 19:26:16,[-120.87912087912088|-48.35164835164835|-75.45787545787546|-74.72527472527473|-64.46886446886447]
254,2026-01-31 19:26:16,[-122.34432234432235|-193.4065934065934|-221.24542124542126|-369.2307692307692|-482.7838827838828]
255,2026-01-31 19:26:16,[-478.38827838827837|-435.8974358974359|-339.9267399267399|-275.45787545787545|-137.72893772893772]
256,2026-01-31 19:26:16,[249.8168498168498|883.5164835164835|809.5238095238095|72.52747252747253|-471.06227106227107]
257,2026-01-31 19:26:16,[-481.31868131868134|-261.53846153846155|-90.10989010989012|-73.99267399267399|-41.02564102564103]
258,2026-01-31 19:26:16,[-41.02564102564103|-47.61904761904762|-65.2014652014652|-97.43589743589743|-101.0989010989011]
259,2026-01-31 19:26:16,[-155.3113553113553|-169.96336996336996|-172.8937728937729|-156.04395604395606|-90.10989010989012]
260,2026-01-31 19:26:16,[-43.223443223443226|-31.501831501831504|41.02564102564103|89.37728937728937|145.78754578754578]
261,2026-01-31 19:26:16,[201.46520146520146|244.6886446886447|263.003663003663|263.003663003663|303.2967032967033]
262,2026-01-31 19:26:16,[318.68131868131866|320.1465201465202|271.06227106227107|217.58241758241758|191.2087912087912]
263,2026-01-31 19:26:16,[112.82051282051282|52.014652014652015|-40.29304029304029|-180.95238095238096|-243.95604395604394]
264,2026-01-31 19:26:16,[-282.7838827838828|-252.01465201465203|-227.83882783882783|-238.0952380952381|-224.17582417582418]
265,2026-01-31 19:26:16,[-220.51282051282053|-200.0|-191.2087912087912|-120.87912087912088|-125.27472527472527]
266,2026-01-31 19:26:16,[-132.6007326007326|-154.57875457875457|-200.0|-260.8058608058608|-302.56410256410254]
267,2026-01-31 19:26:16,[-299.6336996336996|-306.959706959707|-317.2161172161172|-296.7032967032967|-257.87545787545787]
268,2026-01-31 19:26:16,[-207.32600732600733|-146.5201465201465|-156.7765567765568|-161.17216117216117|-121.6117216117216]
269,2026-01-31 19:26:16,[-141.3919413919414|-124.54212454212454|-94.50549450549451|-78.3882783882784|-76.19047619047619]
270,2026-01-31 19:26:16,[-120.87912087912088|-159.7069597069597|-191.2087912087912|-297.43589743589746|-290.84249084249086]
271,2026-01-31 19:26:16,[-202.1978021978022|-170.6959706959707|-159.7069597069597|-158.24175824175825|-200.0]
272,2026-01-31 19:26:16,[-227.83882783882783|-178.02197802197801|-204.3956043956044|-166.3003663003663|-95.97069597069597]
273,2026-01-31 19:26:16,[-98.9010989010989|-123.07692307692308|-77.65567765567765|167.76556776556777|668.8644688644689]
274,2026-01-31 19:26:16,[1052.014652014652|525.2747252747253|-195.6043956043956|-582.4175824175824|-393.4065934065934]
275,2026-01-31 19:26:17,[-218.3150183150183|-188.2783882783883|-170.6959706959707|-103.2967032967033|-28.571428571428573]
276,2026-01-31 19:26:17,[-59.34065934065934|-46.88644688644688|-31.501831501831504|-21.245421245421245|5.86080586080586]
277,2026-01-31 19:26:17,[30.036630036630036|34.43223443223443|40.29304029304029|41.02564102564103|44.688644688644686]
278,2026-01-31 19:26:17,[73.99267399267399|101.83150183150182|106.95970695970696|128.93772893772893|203.66300366300365]
279,2026-01-31 19:26:17,[220.51282051282053|238.0952380952381|267.3992673992674|288.64468864468864|286.4468864468864]
280,2026-01-31 19:26:17,[274.72527472527474|279.1208791208791|248.35164835164835|175.0915750915751|104.76190476190476]
281,2026-01-31 19:26:17,[17.582417582417584|-49.81684981684982|-106.22710622710623|-172.16117216117217|-183.15018315018315]
282,2026-01-31 19:26:17,[-205.86080586080587|-217.58241758241758|-213.1868131868132|-224.9084249084249|-235.16483516483515]
283,2026-01-31 19:26:17,[-229.3040293040293|-213.1868131868132|-203.66300366300365|-195.6043956043956|-189.74358974358975]
284,2026-01-31 19:26:17,[-195.6043956043956|-194.13919413919413|-182.41758241758242|-197.06959706959708|-178.02197802197801]
285,2026-01-31 19:26:17,[-175.0915750915751|-173.62637362637363|-178.75457875457874|-192.67399267399267|-175.0915750915751]
286,2026-01-31 19:26:17,[-181.6849816849817|-204.3956043956044|-208.05860805860806|-207.32600732600733|-205.12820512820514]
287,2026-01-31 19:26:17,[-178.02197802197801|-173.62637362637363|-178.75457875457874|-189.74358974358975|-164.83516483516485]
288,2026-01-31 19:26:17,[-172.8937728937729|-189.74358974358975|-183.88278388278388|-183.15018315018315|-191.2087912087912]
289,2026-01-31 19:26:17,[-208.05860805860806|-166.3003663003663|-109.89010989010988|-188.2783882783883|-191.2087912087912]
290,2026-01-31 19:26:17,[-153.1135531135531|-178.02197802197801|-157.50915750915752|-201.46520146520146|-147.25274725274724]
291,2026-01-31 19:26:17,[-75.45787545787546|-117.94871794871794|-148.71794871794873|-103.2967032967033|109.15750915750915]
292,2026-01-31 19:26:17,[582.4175824175824|791.2087912087912|332.6007326007326|-276.1904761904762|-449.0842490842491]
293,2026-01-31 19:26:17,[-211.7216117216117|-107.6923076923077|-113.55311355311355|-114.28571428571429|-79.85347985347985]
294,2026-01-31 19:26:17,[-94.50549450549451|-98.16849816849818|-89.37728937728937|-66.66666666666667|-38.095238095238095]
295,2026-01-31 19:26:17,[-55.67765567765568|-54.94505494505494|-12.454212454212454|-27.106227106227106|-27.106227106227106]
