Packet_Number,Timestamp,Data
1,2026-01-31 19:26:06,[111846|0]
2,2026-01-31 19:26:06,[111881|0]
3,2026-01-31 19:26:06,[111962|0]
4,2026-01-31 19:26:06,[112000|0]
5,2026-01-31 19:26:06,[111749|0]
6,2026-01-31 19:26:06,[111337|0]
7,2026-01-31 19:26:06,[111144|0]
8,2026-01-31 19:26:06,[111110|0]
9,2026-01-31 19:26:06,[111162|0]
10,2026-01-31 19:26:06,[111215|0]
11,2026-01-31 19:26:06,[111237|0]
12,2026-01-31 19:26:06,[111230|0]
13,2026-01-31 19:26:06,[111185|0]
14,2026-01-31 19:26:06,[111155|0]
15,2026-01-31 19:26:06,[111192|0]
16,2026-01-31 19:26:06,[111192|0]
17,2026-01-31 19:26:06,[111257|0]
18,2026-01-31 19:26:06,[111325|0]
19,2026-01-31 19:26:06,[111402|0]
20,2026-01-31 19:26:06,[111440|0]
21,2026-01-31 19:26:06,[111465|0]
22,2026-01-31 19:26:06,[111513|0]
23,2026-01-31 19:26:06,[111550|0]
24,2026-01-31 19:26:06,[111596|0]
25,2026-01-31 19:26:06,[111642|0]
26,2026-01-31 19:26:07,[111692|0]
27,2026-01-31 19:26:07,[111733|0]
28,2026-01-31 19:26:07,[111806|0]
29,2026-01-31 19:26:07,[111867|0]
30,2026-01-31 19:26:07,[111890|0]
31,2026-01-31 19:26:07,[111631|0]
32,2026-01-31 19:26:07,[111230|0]
33,2026-01-31 19:26:07,[111014|0]
34,2026-01-31 19:26:07,[111031|0]
35,2026-01-31 19:26:07,[111104|0]
36,2026-01-31 19:26:07,[111173|0]
37,2026-01-31 19:26:07,[111203|0]
38,2026-01-31 19:26:07,[111159|0]
39,2026-01-31 19:26:07,[111080|0]
40,2026-01-31 19:26:07,[111095|0]
41,2026-01-31 19:26:07,[111127|0]
42,2026-01-31 19:26:07,[111195|0]
43,2026-01-31 19:26:07,[111262|0]
44,2026-01-31 19:26:07,[111320|0]
45,2026-01-31 19:26:07,[111334|0]
46,2026-01-31 19:26:07,[111393|0]
47,2026-01-31 19:26:07,[111428|0]
48,2026-01-31 19:26:07,[111475|0]
49,2026-01-31 19:26:07,[111496|0]
50,2026-01-31 19:26:07,[111550|0]
51,2026-01-31 19:26:08,[111579|0]
52,2026-01-31 19:26:08,[111652|0]
53,2026-01-31 19:26:08,[111711|0]
54,2026-01-31 19:26:08,[111760|0]
55,2026-01-31 19:26:08,[111546|0]
56,2026-01-31 19:26:08,[111135|0]
57,2026-01-31 19:26:08,[110852|0]
58,2026-01-31 19:26:08,[110829|0]
59,2026-01-31 19:26:08,[110862|0]
60,2026-01-31 19:26:08,[110896|0]
61,2026-01-31 19:26:08,[110922|0]
62,2026-01-31 19:26:08,[110903|0]
63,2026-01-31 19:26:08,[110830|0]
64,2026-01-31 19:26:08,[110830|0]
65,2026-01-31 19:26:08,[110854|0]
66,2026-01-31 19:26:08,[110910|0]
67,2026-01-31 19:26:08,[110972|0]
68,2026-01-31 19:26:08,[111022|0]
69,2026-01-31 19:26:08,[111039|0]
70,2026-01-31 19:26:08,[111105|0]
71,2026-01-31 19:26:08,[111131|0]
72,2026-01-31 19:26:08,[111175|0]
73,2026-01-31 19:26:08,[111222|0]
74,2026-01-31 19:26:08,[111264|0]
75,2026-01-31 19:26:09,[111292|0]
76,2026-01-31 19:26:09,[111371|0]
77,2026-01-31 19:26:09,[111433|0]
78,2026-01-31 19:26:09,[111478|0]
79,2026-01-31 19:26:09,[111549|0]
80,2026-01-31 19:26:09,[111479|0]
81,2026-01-31 19:26:09,[111047|0]
82,2026-01-31 19:26:09,[110734|0]
83,2026-01-31 19:26:09,[110616|0]
84,2026-01-31 19:26:09,[110637|0]
85,2026-01-31 19:26:09,[110675|0]
86,2026-01-31 19:26:09,[110693|0]
87,2026-01-31 19:26:09,[110694|0]
88,2026-01-31 19:26:09,[110664|0]
89,2026-01-31 19:26:09,[110622|0]
90,2026-01-31 19:26:09,[110633|0]
91,2026-01-31 19:26:09,[110685|0]
92,2026-01-31 19:26:09,[110750|0]
93,2026-01-31 19:26:09,[110799|0]
94,2026-01-31 19:26:09,[110877|0]
95,2026-01-31 19:26:09,[110924|0]
96,2026-01-31 19:26:09,[110957|0]
97,2026-01-31 19:26:09,[111002|0]
98,2026-01-31 19:26:09,[111040|0]
99,2026-01-31 19:26:09,[111076|0]
100,2026-01-31 19:26:09,[111147|0]
101,2026-01-31 19:26:10,[111185|0]
102,2026-01-31 19:26:10,[111242|0]
103,2026-01-31 19:26:10,[111283|0]
104,2026-01-31 19:26:10,[111332|0]
105,2026-01-31 19:26:10,[111382|0]
106,2026-01-31 19:26:10,[111186|0]
107,2026-01-31 19:26:10,[110780|0]
108,2026-01-31 19:26:10,[110520|0]
109,2026-01-31 19:26:10,[110485|0]
110,2026-01-31 19:26:10,[110540|0]
111,2026-01-31 19:26:10,[110612|0]
112,2026-01-31 19:26:10,[110686|0]
113,2026-01-31 19:26:10,[110652|0]
114,2026-01-31 19:26:10,[110594|0]
115,2026-01-31 19:26:10,[110601|0]
116,2026-01-31 19:26:10,[110631|0]
117,2026-01-31 19:26:10,[110736|0]
118,2026-01-31 19:26:10,[110833|0]
119,2026-01-31 19:26:10,[110901|0]
120,2026-01-31 19:26:10,[110960|0]
121,2026-01-31 19:26:10,[111002|0]
122,2026-01-31 19:26:10,[111034|0]
123,2026-01-31 19:26:10,[111068|0]
124,2026-01-31 19:26:10,[111140|0]
125,2026-01-31 19:26:10,[111195|0]
126,2026-01-31 19:26:11,[111246|0]
127,2026-01-31 19:26:11,[111320|0]
128,2026-01-31 19:26:11,[111376|0]
129,2026-01-31 19:26:11,[111456|0]
130,2026-01-31 19:26:11,[111525|0]
131,2026-01-31 19:26:11,[111525|0]
132,2026-01-31 19:26:11,[111351|0]
133,2026-01-31 19:26:11,[110890|0]
134,2026-01-31 19:26:11,[110618|0]
135,2026-01-31 19:26:11,[110529|0]
136,2026-01-31 19:26:11,[110587|0]
137,2026-01-31 19:26:11,[110641|0]
138,2026-01-31 19:26:11,[110685|0]
139,2026-01-31 19:26:11,[110678|0]
140,2026-01-31 19:26:11,[110631|0]
141,2026-01-31 19:26:11,[110600|0]
142,2026-01-31 19:26:11,[110625|0]
143,2026-01-31 19:26:11,[110689|0]
144,2026-01-31 19:26:11,[110767|0]
145,2026-01-31 19:26:11,[110847|0]
146,2026-01-31 19:26:11,[110914|0]
147,2026-01-31 19:26:11,[110952|0]
148,2026-01-31 19:26:11,[111025|0]
149,2026-01-31 19:26:11,[111088|0]
150,2026-01-31 19:26:12,[111138|0]
151,2026-01-31 19:26:12,[111220|0]
152,2026-01-31 19:26:12,[111272|0]
153,2026-01-31 19:26:12,[111309|0]
154,2026-01-31 19:26:12,[111398|0]
155,2026-01-31 19:26:12,[111480|0]
156,2026-01-31 19:26:12,[111536|0]
157,2026-01-31 19:26:12,[111298|0]
158,2026-01-31 19:26:12,[110840|0]
159,2026-01-31 19:26:12,[110564|0]
160,2026-01-31 19:26:12,[110548|0]
161,2026-01-31 19:26:12,[110605|0]
162,2026-01-31 19:26:12,[110673|0]
163,2026-01-31 19:26:12,[110732|0]
164,2026-01-31 19:26:12,[110694|0]
165,2026-01-31 19:26:12,[110624|0]
166,2026-01-31 19:26:12,[110606|0]
167,2026-01-31 19:26:12,[110631|0]
168,2026-01-31 19:26:12,[110696|0]
169,2026-01-31 19:26:12,[110770|0]
170,2026-01-31 19:26:12,[110838|0]
171,2026-01-31 19:26:12,[110875|0]
172,2026-01-31 19:26:12,[110921|0]
173,2026-01-31 19:26:12,[110964|0]
174,2026-01-31 19:26:12,[111017|0]
175,2026-01-31 19:26:12,[111072|0]
176,2026-01-31 19:26:13,[111129|0]
177,2026-01-31 19:26:13,[111181|0]
178,2026-01-31 19:26:13,[111255|0]
179,2026-01-31 19:26:13,[111359|0]
180,2026-01-31 19:26:13,[111311|0]
181,2026-01-31 19:26:13,[110899|0]
182,2026-01-31 19:26:13,[110549|0]
183,2026-01-31 19:26:13,[110395|0]
184,2026-01-31 19:26:13,[110459|0]
185,2026-01-31 19:26:13,[110523|0]
186,2026-01-31 19:26:13,[110575|0]
187,2026-01-31 19:26:13,[110603|0]
188,2026-01-31 19:26:13,[110541|0]
189,2026-01-31 19:26:13,[110469|0]
190,2026-01-31 19:26:13,[110507|0]
191,2026-01-31 19:26:13,[110559|0]
192,2026-01-31 19:26:13,[110665|0]
193,2026-01-31 19:26:13,[110737|0]
194,2026-01-31 19:26:13,[110791|0]
195,2026-01-31 19:26:13,[110815|0]
196,2026-01-31 19:26:13,[110883|0]
197,2026-01-31 19:26:13,[110953|0]
198,2026-01-31 19:26:13,[110980|0]
199,2026-01-31 19:26:13,[110962|0]
200,2026-01-31 19:26:14,[110993|0]
201,2026-01-31 19:26:14,[111112|0]
202,2026-01-31 19:26:14,[111390|0]
203,2026-01-31 19:26:14,[111305|0]
204,2026-01-31 19:26:14,[111107|0]
205,2026-01-31 19:26:14,[110743|0]
206,2026-01-31 19:26:14,[110448|0]
207,2026-01-31 19:26:14,[110133|0]
208,2026-01-31 19:26:14,[110222|0]
209,2026-01-31 19:26:14,[110509|0]
210,2026-01-31 19:26:14,[110500|0]
211,2026-01-31 19:26:14,[110328|0]
212,2026-01-31 19:26:14,[110284|0]
213,2026-01-31 19:26:14,[110493|0]
214,2026-01-31 19:26:14,[110505|0]
215,2026-01-31 19:26:14,[110378|0]
216,2026-01-31 19:26:14,[110552|0]
217,2026-01-31 19:26:14,[111200|0]
218,2026-01-31 19:26:14,[111308|0]
219,2026-01-31 19:26:14,[111038|0]
220,2026-01-31 19:26:14,[111192|0]
221,2026-01-31 19:26:14,[111771|0]
222,2026-01-31 19:26:14,[112124|0]
223,2026-01-31 19:26:14,[111988|0]
224,2026-01-31 19:26:14,[112383|0]
225,2026-01-31 19:26:15,[112516|0]
226,2026-01-31 19:26:15,[112582|0]
227,2026-01-31 19:26:15,[112101|0]
228,2026-01-31 19:26:15,[112130|0]
229,2026-01-31 19:26:15,[112668|0]
230,2026-01-31 19:26:15,[112551|0]
231,2026-01-31 19:26:15,[112086|0]
232,2026-01-31 19:26:15,[112096|0]
233,2026-01-31 19:26:15,[111933|0]
234,2026-01-31 19:26:15,[111934|0]
235,2026-01-31 19:26:15,[111816|0]
236,2026-01-31 19:26:15,[111698|0]
237,2026-01-31 19:26:15,[112327|0]
238,2026-01-31 19:26:15,[112908|0]
239,2026-01-31 19:26:15,[112595|0]
240,2026-01-31 19:26:15,[112007|0]
241,2026-01-31 19:26:15,[111760|0]
242,2026-01-31 19:26:15,[112125|0]
243,2026-01-31 19:26:15,[112107|0]
244,2026-01-31 19:26:15,[111468|0]
245,2026-01-31 19:26:15,[111165|0]
246,2026-01-31 19:26:15,[111165|0]
247,2026-01-31 19:26:15,[111081|0]
248,2026-01-31 19:26:15,[110725|0]
249,2026-01-31 19:26:15,[110016|0]
250,2026-01-31 19:26:15,[110323|0]
251,2026-01-31 19:26:16,[110503|0]
252,2026-01-31 19:26:16,[110353|0]
253,2026-01-31 19:26:16,[110324|0]
254,2026-01-31 19:26:16,[110118|0]
255,2026-01-31 19:26:16,[109976|0]
256,2026-01-31 19:26:16,[109665|0]
257,2026-01-31 19:26:16,[110035|0]
258,2026-01-31 19:26:16,[110569|0]
259,2026-01-31 19:26:16,[110619|0]
260,2026-01-31 19:26:16,[110170|0]
261,2026-01-31 19:26:16,[110224|0]
262,2026-01-31 19:26:16,[110421|0]
263,2026-01-31 19:26:16,[110370|0]
264,2026-01-31 19:26:16,[109918|0]
265,2026-01-31 19:26:16,[109593|0]
266,2026-01-31 19:26:16,[109594|0]
267,2026-01-31 19:26:16,[109579|0]
268,2026-01-31 19:26:16,[109427|0]
269,2026-01-31 19:26:16,[109437|0]
270,2026-01-31 19:26:16,[109780|0]
271,2026-01-31 19:26:16,[109794|0]
272,2026-01-31 19:26:16,[109544|0]
273,2026-01-31 19:26:16,[109563|0]
274,2026-01-31 19:26:16,[109720|0]
275,2026-01-31 19:26:17,[109608|0]
276,2026-01-31 19:26:17,[109474|0]
277,2026-01-31 19:26:17,[109755|0]
278,2026-01-31 19:26:17,[109926|0]
279,2026-01-31 19:26:17,[109753|0]
280,2026-01-31 19:26:17,[109662|0]
281,2026-01-31 19:26:17,[109573|0]
282,2026-01-31 19:26:17,[109427|0]
283,2026-01-31 19:26:17,[109283|0]
284,2026-01-31 19:26:17,[109287|0]
285,2026-01-31 19:26:17,[109335|0]
286,2026-01-31 19:26:17,[109437|0]
287,2026-01-31 19:26:17,[109536|0]
288,2026-01-31 19:26:17,[109580|0]
289,2026-01-31 19:26:17,[109636|0]
290,2026-01-31 19:26:17,[109700|0]
291,2026-01-31 19:26:17,[109745|0]
292,2026-01-31 19:26:17,[109874|0]
293,2026-01-31 19:26:17,[109954|0]
294,2026-01-31 19:26:17,[110051|0]
295,2026-01-31 19:26:17,[110187|0]
