Packet_Number,Timestamp,Data
1,2026-02-10 20:22:00,[104481|0]
2,2026-02-10 20:22:00,[104471|0]
3,2026-02-10 20:22:00,[104522|0]
4,2026-02-10 20:22:00,[104500|0]
5,2026-02-10 20:22:00,[104463|0]
6,2026-02-10 20:22:00,[104484|0]
7,2026-02-10 20:22:00,[104441|0]
8,2026-02-10 20:22:00,[104427|0]
9,2026-02-10 20:22:00,[104570|0]
10,2026-02-10 20:22:00,[104668|0]
11,2026-02-10 20:22:00,[104548|0]
12,2026-02-10 20:22:00,[104583|0]
13,2026-02-10 20:22:00,[104539|0]
14,2026-02-10 20:22:00,[104536|0]
15,2026-02-10 20:22:00,[104651|0]
16,2026-02-10 20:22:00,[104667|0]
17,2026-02-10 20:22:00,[104667|0]
18,2026-02-10 20:22:00,[104679|0]
19,2026-02-10 20:22:00,[104704|0]
20,2026-02-10 20:22:00,[104676|0]
21,2026-02-10 20:22:00,[104645|0]
22,2026-02-10 20:22:00,[104649|0]
23,2026-02-10 20:22:01,[104650|0]
24,2026-02-10 20:22:01,[104707|0]
25,2026-02-10 20:22:01,[104698|0]
26,2026-02-10 20:22:01,[104729|0]
27,2026-02-10 20:22:01,[104757|0]
28,2026-02-10 20:22:01,[104743|0]
29,2026-02-10 20:22:01,[104692|0]
30,2026-02-10 20:22:01,[104689|0]
31,2026-02-10 20:22:01,[104800|0]
32,2026-02-10 20:22:01,[105063|0]
33,2026-02-10 20:22:01,[105156|0]
34,2026-02-10 20:22:01,[104944|0]
35,2026-02-10 20:22:01,[104753|0]
36,2026-02-10 20:22:01,[104644|0]
37,2026-02-10 20:22:01,[104643|0]
38,2026-02-10 20:22:01,[104761|0]
39,2026-02-10 20:22:01,[104856|0]
40,2026-02-10 20:22:01,[104828|0]
41,2026-02-10 20:22:01,[104710|0]
42,2026-02-10 20:22:01,[104697|0]
43,2026-02-10 20:22:01,[104741|0]
44,2026-02-10 20:22:01,[104846|0]
45,2026-02-10 20:22:01,[104937|0]
46,2026-02-10 20:22:01,[104988|0]
47,2026-02-10 20:22:01,[105043|0]
48,2026-02-10 20:22:01,[105086|0]
49,2026-02-10 20:22:02,[105100|0]
50,2026-02-10 20:22:02,[105109|0]
51,2026-02-10 20:22:02,[105130|0]
52,2026-02-10 20:22:02,[105130|0]
53,2026-02-10 20:22:02,[105134|0]
54,2026-02-10 20:22:02,[105159|0]
55,2026-02-10 20:22:02,[105172|0]
56,2026-02-10 20:22:02,[105142|0]
57,2026-02-10 20:22:02,[105143|0]
58,2026-02-10 20:22:02,[105109|0]
59,2026-02-10 20:22:02,[105104|0]
60,2026-02-10 20:22:02,[105108|0]
61,2026-02-10 20:22:02,[105096|0]
62,2026-02-10 20:22:02,[105075|0]
63,2026-02-10 20:22:02,[105065|0]
64,2026-02-10 20:22:02,[105020|0]
65,2026-02-10 20:22:02,[105021|0]
66,2026-02-10 20:22:02,[105021|0]
67,2026-02-10 20:22:02,[105033|0]
68,2026-02-10 20:22:02,[105032|0]
69,2026-02-10 20:22:02,[105058|0]
70,2026-02-10 20:22:02,[105036|0]
71,2026-02-10 20:22:02,[105023|0]
72,2026-02-10 20:22:02,[105031|0]
73,2026-02-10 20:22:03,[105043|0]
74,2026-02-10 20:22:03,[105028|0]
75,2026-02-10 20:22:03,[105021|0]
76,2026-02-10 20:22:03,[105033|0]
77,2026-02-10 20:22:03,[105007|0]
78,2026-02-10 20:22:03,[105024|0]
79,2026-02-10 20:22:03,[105032|0]
80,2026-02-10 20:22:03,[105019|0]
81,2026-02-10 20:22:03,[105007|0]
82,2026-02-10 20:22:03,[105015|0]
83,2026-02-10 20:22:03,[104989|0]
84,2026-02-10 20:22:03,[105018|0]
85,2026-02-10 20:22:03,[105017|0]
86,2026-02-10 20:22:03,[105012|0]
87,2026-02-10 20:22:03,[105005|0]
88,2026-02-10 20:22:03,[105000|0]
89,2026-02-10 20:22:03,[104975|0]
90,2026-02-10 20:22:03,[104995|0]
91,2026-02-10 20:22:03,[104996|0]
92,2026-02-10 20:22:03,[104996|0]
93,2026-02-10 20:22:03,[104991|0]
94,2026-02-10 20:22:03,[104983|0]
95,2026-02-10 20:22:03,[104950|0]
96,2026-02-10 20:22:03,[104964|0]
97,2026-02-10 20:22:03,[104963|0]
98,2026-02-10 20:22:04,[104969|0]
99,2026-02-10 20:22:04,[104970|0]
100,2026-02-10 20:22:04,[104972|0]
101,2026-02-10 20:22:04,[104976|0]
102,2026-02-10 20:22:04,[104983|0]
103,2026-02-10 20:22:04,[104983|0]
104,2026-02-10 20:22:04,[104974|0]
105,2026-02-10 20:22:04,[104991|0]
106,2026-02-10 20:22:04,[104980|0]
107,2026-02-10 20:22:04,[104944|0]
108,2026-02-10 20:22:04,[104976|0]
109,2026-02-10 20:22:04,[104980|0]
110,2026-02-10 20:22:04,[104984|0]
111,2026-02-10 20:22:04,[104976|0]
112,2026-02-10 20:22:04,[104969|0]
113,2026-02-10 20:22:04,[104948|0]
114,2026-02-10 20:22:04,[104972|0]
115,2026-02-10 20:22:04,[104984|0]
116,2026-02-10 20:22:04,[104978|0]
117,2026-02-10 20:22:04,[104975|0]
118,2026-02-10 20:22:04,[104972|0]
119,2026-02-10 20:22:04,[104947|0]
120,2026-02-10 20:22:04,[104980|0]
121,2026-02-10 20:22:04,[104978|0]
122,2026-02-10 20:22:04,[104984|0]
123,2026-02-10 20:22:04,[104983|0]
124,2026-02-10 20:22:05,[104981|0]
125,2026-02-10 20:22:05,[104937|0]
126,2026-02-10 20:22:05,[104938|0]
127,2026-02-10 20:22:05,[104947|0]
128,2026-02-10 20:22:05,[104963|0]
129,2026-02-10 20:22:05,[104955|0]
130,2026-02-10 20:22:05,[104972|0]
131,2026-02-10 20:22:05,[104920|0]
132,2026-02-10 20:22:05,[104934|0]
133,2026-02-10 20:22:05,[104934|0]
134,2026-02-10 20:22:05,[104920|0]
135,2026-02-10 20:22:05,[104940|0]
136,2026-02-10 20:22:05,[104950|0]
137,2026-02-10 20:22:05,[104934|0]
138,2026-02-10 20:22:05,[104943|0]
139,2026-02-10 20:22:05,[104946|0]
140,2026-02-10 20:22:05,[104942|0]
141,2026-02-10 20:22:05,[104930|0]
142,2026-02-10 20:22:05,[104936|0]
143,2026-02-10 20:22:05,[104928|0]
144,2026-02-10 20:22:05,[104946|0]
145,2026-02-10 20:22:05,[104949|0]
146,2026-02-10 20:22:05,[104952|0]
147,2026-02-10 20:22:05,[104949|0]
148,2026-02-10 20:22:05,[104929|0]
149,2026-02-10 20:22:06,[104929|0]
150,2026-02-10 20:22:06,[104934|0]
151,2026-02-10 20:22:06,[104935|0]
152,2026-02-10 20:22:06,[104936|0]
153,2026-02-10 20:22:06,[104930|0]
154,2026-02-10 20:22:06,[104924|0]
155,2026-02-10 20:22:06,[104909|0]
156,2026-02-10 20:22:06,[104909|0]
157,2026-02-10 20:22:06,[104901|0]
158,2026-02-10 20:22:06,[104922|0]
159,2026-02-10 20:22:06,[104944|0]
160,2026-02-10 20:22:06,[104921|0]
161,2026-02-10 20:22:06,[104928|0]
162,2026-02-10 20:22:06,[104939|0]
163,2026-02-10 20:22:06,[104940|0]
164,2026-02-10 20:22:06,[104948|0]
165,2026-02-10 20:22:06,[104952|0]
166,2026-02-10 20:22:06,[104940|0]
167,2026-02-10 20:22:06,[104951|0]
168,2026-02-10 20:22:06,[104960|0]
169,2026-02-10 20:22:06,[104970|0]
170,2026-02-10 20:22:06,[104958|0]
171,2026-02-10 20:22:06,[104954|0]
172,2026-02-10 20:22:06,[104943|0]
173,2026-02-10 20:22:07,[104966|0]
174,2026-02-10 20:22:07,[104989|0]
175,2026-02-10 20:22:07,[104993|0]
176,2026-02-10 20:22:07,[104981|0]
177,2026-02-10 20:22:07,[104987|0]
178,2026-02-10 20:22:07,[104966|0]
179,2026-02-10 20:22:07,[104984|0]
180,2026-02-10 20:22:07,[104989|0]
181,2026-02-10 20:22:07,[104989|0]
182,2026-02-10 20:22:07,[104983|0]
183,2026-02-10 20:22:07,[104985|0]
184,2026-02-10 20:22:07,[104982|0]
185,2026-02-10 20:22:07,[104951|0]
186,2026-02-10 20:22:07,[104936|0]
187,2026-02-10 20:22:07,[104943|0]
188,2026-02-10 20:22:07,[104969|0]
189,2026-02-10 20:22:07,[104974|0]
190,2026-02-10 20:22:07,[104980|0]
191,2026-02-10 20:22:07,[104964|0]
192,2026-02-10 20:22:07,[104991|0]
193,2026-02-10 20:22:07,[104982|0]
194,2026-02-10 20:22:07,[104974|0]
195,2026-02-10 20:22:07,[104982|0]
196,2026-02-10 20:22:07,[104979|0]
197,2026-02-10 20:22:07,[104951|0]
198,2026-02-10 20:22:07,[104977|0]
199,2026-02-10 20:22:08,[104974|0]
200,2026-02-10 20:22:08,[104968|0]
201,2026-02-10 20:22:08,[104960|0]
202,2026-02-10 20:22:08,[104951|0]
203,2026-02-10 20:22:08,[104945|0]
204,2026-02-10 20:22:08,[104971|0]
205,2026-02-10 20:22:08,[104969|0]
206,2026-02-10 20:22:08,[104973|0]
207,2026-02-10 20:22:08,[104983|0]
208,2026-02-10 20:22:08,[104975|0]
209,2026-02-10 20:22:08,[104946|0]
210,2026-02-10 20:22:08,[104971|0]
211,2026-02-10 20:22:08,[104980|0]
212,2026-02-10 20:22:08,[104972|0]
213,2026-02-10 20:22:08,[104979|0]
214,2026-02-10 20:22:08,[104955|0]
215,2026-02-10 20:22:08,[104913|0]
216,2026-02-10 20:22:08,[104951|0]
217,2026-02-10 20:22:08,[104953|0]
218,2026-02-10 20:22:08,[104961|0]
219,2026-02-10 20:22:08,[104969|0]
220,2026-02-10 20:22:08,[104958|0]
221,2026-02-10 20:22:08,[104934|0]
222,2026-02-10 20:22:08,[104949|0]
223,2026-02-10 20:22:09,[104948|0]
224,2026-02-10 20:22:09,[104946|0]
225,2026-02-10 20:22:09,[104940|0]
226,2026-02-10 20:22:09,[104935|0]
227,2026-02-10 20:22:09,[104934|0]
228,2026-02-10 20:22:09,[104961|0]
229,2026-02-10 20:22:09,[104942|0]
230,2026-02-10 20:22:09,[104930|0]
231,2026-02-10 20:22:09,[104940|0]
232,2026-02-10 20:22:09,[104971|0]
233,2026-02-10 20:22:09,[104969|0]
234,2026-02-10 20:22:09,[105002|0]
235,2026-02-10 20:22:09,[104982|0]
236,2026-02-10 20:22:09,[104986|0]
237,2026-02-10 20:22:09,[104981|0]
238,2026-02-10 20:22:09,[104984|0]
239,2026-02-10 20:22:09,[104938|0]
240,2026-02-10 20:22:09,[104971|0]
241,2026-02-10 20:22:09,[104997|0]
242,2026-02-10 20:22:09,[104993|0]
243,2026-02-10 20:22:09,[104988|0]
244,2026-02-10 20:22:09,[104979|0]
245,2026-02-10 20:22:09,[104922|0]
246,2026-02-10 20:22:09,[104949|0]
247,2026-02-10 20:22:09,[104970|0]
248,2026-02-10 20:22:10,[104990|0]
249,2026-02-10 20:22:10,[105004|0]
250,2026-02-10 20:22:10,[105022|0]
251,2026-02-10 20:22:10,[105015|0]
252,2026-02-10 20:22:10,[105026|0]
253,2026-02-10 20:22:10,[105030|0]
254,2026-02-10 20:22:10,[105027|0]
255,2026-02-10 20:22:10,[105036|0]
256,2026-02-10 20:22:10,[105029|0]
257,2026-02-10 20:22:10,[105021|0]
258,2026-02-10 20:22:10,[105035|0]
259,2026-02-10 20:22:10,[105026|0]
260,2026-02-10 20:22:10,[104983|0]
261,2026-02-10 20:22:10,[104981|0]
262,2026-02-10 20:22:10,[104984|0]
263,2026-02-10 20:22:10,[104986|0]
264,2026-02-10 20:22:10,[105013|0]
265,2026-02-10 20:22:10,[105005|0]
266,2026-02-10 20:22:10,[104954|0]
267,2026-02-10 20:22:10,[104916|0]
268,2026-02-10 20:22:10,[104881|0]
269,2026-02-10 20:22:10,[104838|0]
270,2026-02-10 20:22:10,[104839|0]
271,2026-02-10 20:22:10,[104852|0]
272,2026-02-10 20:22:10,[104921|0]
273,2026-02-10 20:22:10,[104926|0]
274,2026-02-10 20:22:11,[104946|0]
275,2026-02-10 20:22:11,[104972|0]
276,2026-02-10 20:22:11,[105032|0]
277,2026-02-10 20:22:11,[105027|0]
278,2026-02-10 20:22:11,[105011|0]
279,2026-02-10 20:22:11,[104964|0]
280,2026-02-10 20:22:11,[104877|0]
281,2026-02-10 20:22:11,[104879|0]
282,2026-02-10 20:22:11,[104921|0]
283,2026-02-10 20:22:11,[104938|0]
284,2026-02-10 20:22:11,[104952|0]
285,2026-02-10 20:22:11,[104946|0]
286,2026-02-10 20:22:11,[104927|0]
287,2026-02-10 20:22:11,[104945|0]
288,2026-02-10 20:22:11,[104969|0]
289,2026-02-10 20:22:11,[104974|0]
290,2026-02-10 20:22:11,[104986|0]
291,2026-02-10 20:22:11,[104990|0]
292,2026-02-10 20:22:11,[104968|0]
293,2026-02-10 20:22:11,[104963|0]
294,2026-02-10 20:22:11,[104962|0]
295,2026-02-10 20:22:11,[104954|0]
296,2026-02-10 20:22:11,[104954|0]
297,2026-02-10 20:22:11,[104968|0]
298,2026-02-10 20:22:12,[104950|0]
299,2026-02-10 20:22:12,[104876|0]
300,2026-02-10 20:22:12,[104864|0]
301,2026-02-10 20:22:12,[104883|0]
302,2026-02-10 20:22:12,[104905|0]
303,2026-02-10 20:22:12,[104929|0]
304,2026-02-10 20:22:12,[104926|0]
305,2026-02-10 20:22:12,[104910|0]
306,2026-02-10 20:22:12,[104913|0]
307,2026-02-10 20:22:12,[104915|0]
308,2026-02-10 20:22:12,[104923|0]
309,2026-02-10 20:22:12,[104924|0]
310,2026-02-10 20:22:12,[104933|0]
311,2026-02-10 20:22:12,[104922|0]
312,2026-02-10 20:22:12,[104929|0]
313,2026-02-10 20:22:12,[104933|0]
314,2026-02-10 20:22:12,[104941|0]
315,2026-02-10 20:22:12,[104943|0]
316,2026-02-10 20:22:12,[104919|0]
317,2026-02-10 20:22:12,[104892|0]
318,2026-02-10 20:22:12,[104930|0]
319,2026-02-10 20:22:12,[104956|0]
320,2026-02-10 20:22:12,[104971|0]
321,2026-02-10 20:22:12,[104977|0]
322,2026-02-10 20:22:12,[104966|0]
323,2026-02-10 20:22:13,[104937|0]
324,2026-02-10 20:22:13,[104963|0]
325,2026-02-10 20:22:13,[104970|0]
326,2026-02-10 20:22:13,[104972|0]
327,2026-02-10 20:22:13,[104972|0]
328,2026-02-10 20:22:13,[104978|0]
329,2026-02-10 20:22:13,[104938|0]
330,2026-02-10 20:22:13,[104951|0]
331,2026-02-10 20:22:13,[104929|0]
332,2026-02-10 20:22:13,[104888|0]
333,2026-02-10 20:22:13,[104888|0]
334,2026-02-10 20:22:13,[104914|0]
335,2026-02-10 20:22:13,[104905|0]
336,2026-02-10 20:22:13,[104948|0]
337,2026-02-10 20:22:13,[104953|0]
338,2026-02-10 20:22:13,[104958|0]
339,2026-02-10 20:22:13,[104964|0]
340,2026-02-10 20:22:13,[104953|0]
341,2026-02-10 20:22:13,[104941|0]
342,2026-02-10 20:22:13,[104956|0]
343,2026-02-10 20:22:13,[104966|0]
344,2026-02-10 20:22:13,[104983|0]
345,2026-02-10 20:22:13,[104979|0]
346,2026-02-10 20:22:13,[104975|0]
347,2026-02-10 20:22:13,[104921|0]
348,2026-02-10 20:22:14,[104961|0]
349,2026-02-10 20:22:14,[104976|0]
350,2026-02-10 20:22:14,[104978|0]
351,2026-02-10 20:22:14,[104977|0]
352,2026-02-10 20:22:14,[104965|0]
353,2026-02-10 20:22:14,[104939|0]
354,2026-02-10 20:22:14,[104973|0]
355,2026-02-10 20:22:14,[104989|0]
356,2026-02-10 20:22:14,[104986|0]
357,2026-02-10 20:22:14,[104977|0]
358,2026-02-10 20:22:14,[104982|0]
359,2026-02-10 20:22:14,[104945|0]
360,2026-02-10 20:22:14,[104976|0]
361,2026-02-10 20:22:14,[104934|0]
362,2026-02-10 20:22:14,[104920|0]
363,2026-02-10 20:22:14,[104953|0]
364,2026-02-10 20:22:14,[104971|0]
365,2026-02-10 20:22:14,[104966|0]
366,2026-02-10 20:22:14,[104980|0]
367,2026-02-10 20:22:14,[104977|0]
368,2026-02-10 20:22:14,[104981|0]
369,2026-02-10 20:22:14,[104971|0]
370,2026-02-10 20:22:14,[104958|0]
371,2026-02-10 20:22:14,[104959|0]
372,2026-02-10 20:22:14,[104985|0]
373,2026-02-10 20:22:15,[104992|0]
374,2026-02-10 20:22:15,[104972|0]
375,2026-02-10 20:22:15,[104950|0]
376,2026-02-10 20:22:15,[104904|0]
377,2026-02-10 20:22:15,[104905|0]
378,2026-02-10 20:22:15,[104937|0]
379,2026-02-10 20:22:15,[104948|0]
380,2026-02-10 20:22:15,[104961|0]
381,2026-02-10 20:22:15,[104963|0]
382,2026-02-10 20:22:15,[104945|0]
383,2026-02-10 20:22:15,[104935|0]
384,2026-02-10 20:22:15,[104955|0]
385,2026-02-10 20:22:15,[104973|0]
386,2026-02-10 20:22:15,[104983|0]
387,2026-02-10 20:22:15,[104964|0]
388,2026-02-10 20:22:15,[104955|0]
389,2026-02-10 20:22:15,[104951|0]
390,2026-02-10 20:22:15,[104925|0]
391,2026-02-10 20:22:15,[104920|0]
392,2026-02-10 20:22:15,[104942|0]
393,2026-02-10 20:22:15,[104965|0]
394,2026-02-10 20:22:15,[104960|0]
395,2026-02-10 20:22:15,[104960|0]
396,2026-02-10 20:22:15,[104969|0]
397,2026-02-10 20:22:15,[104972|0]
398,2026-02-10 20:22:16,[104962|0]
399,2026-02-10 20:22:16,[104961|0]
400,2026-02-10 20:22:16,[104947|0]
401,2026-02-10 20:22:16,[104956|0]
402,2026-02-10 20:22:16,[104980|0]
403,2026-02-10 20:22:16,[104948|0]
404,2026-02-10 20:22:16,[104905|0]
405,2026-02-10 20:22:16,[104889|0]
406,2026-02-10 20:22:16,[104882|0]
407,2026-02-10 20:22:16,[104880|0]
408,2026-02-10 20:22:16,[104878|0]
409,2026-02-10 20:22:16,[104884|0]
410,2026-02-10 20:22:16,[104928|0]
411,2026-02-10 20:22:16,[104928|0]
412,2026-02-10 20:22:16,[104943|0]
413,2026-02-10 20:22:16,[104965|0]
414,2026-02-10 20:22:16,[105004|0]
415,2026-02-10 20:22:16,[105033|0]
416,2026-02-10 20:22:16,[105062|0]
417,2026-02-10 20:22:16,[105071|0]
418,2026-02-10 20:22:16,[105068|0]
419,2026-02-10 20:22:16,[104997|0]
420,2026-02-10 20:22:16,[104914|0]
421,2026-02-10 20:22:16,[104972|0]
422,2026-02-10 20:22:16,[105054|0]
423,2026-02-10 20:22:16,[105064|0]
424,2026-02-10 20:22:17,[105080|0]
425,2026-02-10 20:22:17,[105070|0]
426,2026-02-10 20:22:17,[105077|0]
427,2026-02-10 20:22:17,[105084|0]
428,2026-02-10 20:22:17,[105088|0]
429,2026-02-10 20:22:17,[105073|0]
430,2026-02-10 20:22:17,[105077|0]
431,2026-02-10 20:22:17,[105051|0]
432,2026-02-10 20:22:17,[105076|0]
433,2026-02-10 20:22:17,[105044|0]
434,2026-02-10 20:22:17,[104965|0]
435,2026-02-10 20:22:17,[104966|0]
436,2026-02-10 20:22:17,[105012|0]
437,2026-02-10 20:22:17,[105020|0]
438,2026-02-10 20:22:17,[105053|0]
439,2026-02-10 20:22:17,[105053|0]
440,2026-02-10 20:22:17,[105042|0]
441,2026-02-10 20:22:17,[105044|0]
442,2026-02-10 20:22:17,[105048|0]
443,2026-02-10 20:22:17,[105019|0]
444,2026-02-10 20:22:17,[105041|0]
445,2026-02-10 20:22:17,[105050|0]
446,2026-02-10 20:22:17,[105060|0]
447,2026-02-10 20:22:17,[105070|0]
448,2026-02-10 20:22:18,[105027|0]
449,2026-02-10 20:22:18,[104952|0]
450,2026-02-10 20:22:18,[104967|0]
451,2026-02-10 20:22:18,[105016|0]
452,2026-02-10 20:22:18,[105023|0]
453,2026-02-10 20:22:18,[105042|0]
454,2026-02-10 20:22:18,[105036|0]
455,2026-02-10 20:22:18,[105006|0]
456,2026-02-10 20:22:18,[105018|0]
457,2026-02-10 20:22:18,[105007|0]
458,2026-02-10 20:22:18,[105020|0]
459,2026-02-10 20:22:18,[105029|0]
460,2026-02-10 20:22:18,[105028|0]
461,2026-02-10 20:22:18,[105003|0]
462,2026-02-10 20:22:18,[105033|0]
463,2026-02-10 20:22:18,[105023|0]
464,2026-02-10 20:22:18,[104954|0]
465,2026-02-10 20:22:18,[104940|0]
466,2026-02-10 20:22:18,[104962|0]
467,2026-02-10 20:22:18,[104967|0]
468,2026-02-10 20:22:18,[105005|0]
469,2026-02-10 20:22:18,[105017|0]
470,2026-02-10 20:22:18,[105030|0]
471,2026-02-10 20:22:18,[105028|0]
472,2026-02-10 20:22:18,[105009|0]
473,2026-02-10 20:22:19,[104987|0]
474,2026-02-10 20:22:19,[105026|0]
475,2026-02-10 20:22:19,[105044|0]
476,2026-02-10 20:22:19,[105025|0]
477,2026-02-10 20:22:19,[105042|0]
478,2026-02-10 20:22:19,[105020|0]
479,2026-02-10 20:22:19,[104950|0]
480,2026-02-10 20:22:19,[104920|0]
481,2026-02-10 20:22:19,[104927|0]
482,2026-02-10 20:22:19,[104984|0]
483,2026-02-10 20:22:19,[105009|0]
484,2026-02-10 20:22:19,[105006|0]
485,2026-02-10 20:22:19,[105002|0]
486,2026-02-10 20:22:19,[105021|0]
487,2026-02-10 20:22:19,[105020|0]
488,2026-02-10 20:22:19,[105026|0]
489,2026-02-10 20:22:19,[105032|0]
490,2026-02-10 20:22:19,[105044|0]
491,2026-02-10 20:22:19,[105039|0]
492,2026-02-10 20:22:19,[105052|0]
493,2026-02-10 20:22:19,[105051|0]
494,2026-02-10 20:22:19,[105022|0]
495,2026-02-10 20:22:19,[104944|0]
496,2026-02-10 20:22:19,[104912|0]
497,2026-02-10 20:22:19,[104952|0]
498,2026-02-10 20:22:20,[105006|0]
499,2026-02-10 20:22:20,[105022|0]
500,2026-02-10 20:22:20,[105025|0]
501,2026-02-10 20:22:20,[105011|0]
502,2026-02-10 20:22:20,[105000|0]
503,2026-02-10 20:22:20,[105014|0]
504,2026-02-10 20:22:20,[105044|0]
505,2026-02-10 20:22:20,[105053|0]
506,2026-02-10 20:22:20,[105036|0]
507,2026-02-10 20:22:20,[105038|0]
508,2026-02-10 20:22:20,[105040|0]
509,2026-02-10 20:22:20,[105033|0]
510,2026-02-10 20:22:20,[105024|0]
511,2026-02-10 20:22:20,[104962|0]
512,2026-02-10 20:22:20,[104961|0]
513,2026-02-10 20:22:20,[104988|0]
514,2026-02-10 20:22:20,[105008|0]
515,2026-02-10 20:22:20,[105022|0]
516,2026-02-10 20:22:20,[105037|0]
517,2026-02-10 20:22:20,[105017|0]
518,2026-02-10 20:22:20,[105016|0]
519,2026-02-10 20:22:20,[105027|0]
520,2026-02-10 20:22:20,[105018|0]
521,2026-02-10 20:22:20,[105044|0]
522,2026-02-10 20:22:20,[105041|0]
523,2026-02-10 20:22:20,[105050|0]
524,2026-02-10 20:22:21,[105050|0]
525,2026-02-10 20:22:21,[105027|0]
526,2026-02-10 20:22:21,[105027|0]
527,2026-02-10 20:22:21,[104959|0]
528,2026-02-10 20:22:21,[104921|0]
529,2026-02-10 20:22:21,[104962|0]
530,2026-02-10 20:22:21,[104992|0]
531,2026-02-10 20:22:21,[105014|0]
532,2026-02-10 20:22:21,[105035|0]
533,2026-02-10 20:22:21,[104998|0]
534,2026-02-10 20:22:21,[105003|0]
535,2026-02-10 20:22:21,[105015|0]
536,2026-02-10 20:22:21,[105017|0]
537,2026-02-10 20:22:21,[105033|0]
538,2026-02-10 20:22:21,[105025|0]
539,2026-02-10 20:22:21,[105019|0]
540,2026-02-10 20:22:21,[105030|0]
541,2026-02-10 20:22:21,[105022|0]
542,2026-02-10 20:22:21,[104997|0]
543,2026-02-10 20:22:21,[104886|0]
544,2026-02-10 20:22:21,[104848|0]
545,2026-02-10 20:22:21,[104837|0]
546,2026-02-10 20:22:21,[104907|0]
547,2026-02-10 20:22:21,[104940|0]
548,2026-02-10 20:22:22,[104937|0]
549,2026-02-10 20:22:22,[104914|0]
550,2026-02-10 20:22:22,[104881|0]
551,2026-02-10 20:22:22,[104813|0]
552,2026-02-10 20:22:22,[104764|0]
553,2026-02-10 20:22:22,[104710|0]
554,2026-02-10 20:22:22,[104720|0]
555,2026-02-10 20:22:22,[104715|0]
556,2026-02-10 20:22:22,[104724|0]
557,2026-02-10 20:22:22,[104701|0]
558,2026-02-10 20:22:22,[104559|0]
559,2026-02-10 20:22:22,[104142|0]
560,2026-02-10 20:22:22,[103991|0]
561,2026-02-10 20:22:22,[103994|0]
562,2026-02-10 20:22:22,[104049|0]
563,2026-02-10 20:22:22,[104068|0]
564,2026-02-10 20:22:22,[104113|0]
565,2026-02-10 20:22:22,[104096|0]
566,2026-02-10 20:22:22,[103987|0]
567,2026-02-10 20:22:22,[103927|0]
568,2026-02-10 20:22:22,[103877|0]
569,2026-02-10 20:22:22,[103838|0]
570,2026-02-10 20:22:22,[103883|0]
571,2026-02-10 20:22:22,[103908|0]
572,2026-02-10 20:22:22,[103907|0]
573,2026-02-10 20:22:22,[103941|0]
574,2026-02-10 20:22:23,[103955|0]
575,2026-02-10 20:22:23,[103984|0]
576,2026-02-10 20:22:23,[104103|0]
577,2026-02-10 20:22:23,[104342|0]
578,2026-02-10 20:22:23,[104523|0]
579,2026-02-10 20:22:23,[104602|0]
580,2026-02-10 20:22:23,[104596|0]
581,2026-02-10 20:22:23,[104572|0]
582,2026-02-10 20:22:23,[104612|0]
583,2026-02-10 20:22:23,[104655|0]
584,2026-02-10 20:22:23,[104737|0]
585,2026-02-10 20:22:23,[104839|0]
586,2026-02-10 20:22:23,[104835|0]
587,2026-02-10 20:22:23,[104807|0]
588,2026-02-10 20:22:23,[104860|0]
589,2026-02-10 20:22:23,[104912|0]
590,2026-02-10 20:22:23,[104831|0]
591,2026-02-10 20:22:23,[104750|0]
592,2026-02-10 20:22:23,[104675|0]
593,2026-02-10 20:22:23,[104841|0]
594,2026-02-10 20:22:23,[105078|0]
595,2026-02-10 20:22:23,[105275|0]
596,2026-02-10 20:22:23,[105237|0]
597,2026-02-10 20:22:23,[105114|0]
598,2026-02-10 20:22:24,[104979|0]
599,2026-02-10 20:22:24,[104835|0]
600,2026-02-10 20:22:24,[104789|0]
601,2026-02-10 20:22:24,[104759|0]
602,2026-02-10 20:22:24,[104804|0]
603,2026-02-10 20:22:24,[104875|0]
604,2026-02-10 20:22:24,[104938|0]
605,2026-02-10 20:22:24,[104945|0]
606,2026-02-10 20:22:24,[104975|0]
607,2026-02-10 20:22:24,[104990|0]
608,2026-02-10 20:22:24,[104961|0]
609,2026-02-10 20:22:24,[104966|0]
610,2026-02-10 20:22:24,[104951|0]
611,2026-02-10 20:22:24,[104930|0]
612,2026-02-10 20:22:24,[104959|0]
613,2026-02-10 20:22:24,[104978|0]
614,2026-02-10 20:22:24,[104994|0]
615,2026-02-10 20:22:24,[104989|0]
