Packet_Number,Timestamp,Data
1,2026-02-10 20:22:00,[-158.24175824175825|-235.16483516483515|304.02930402930406|-594.8717948717949|19.047619047619047]
2,2026-02-10 20:22:00,[-147.25274725274724|-220.51282051282053|289.3772893772894|-517.2161172161173|2.93040293040293]
3,2026-02-10 20:22:00,[-136.996336996337|-424.1758241758242|241.02564102564102|-457.87545787545787|-19.78021978021978]
4,2026-02-10 20:22:00,[-122.34432234432235|-212.45421245421247|210.98901098901098|-449.0842490842491|-54.94505494505494]
5,2026-02-10 20:22:00,[-100.36630036630036|-202.93040293040292|139.9267399267399|-324.54212454212455|-98.9010989010989]
6,2026-02-10 20:22:00,[-78.3882783882784|-181.6849816849817|79.85347985347985|-239.56043956043956|-132.6007326007326]
7,2026-02-10 20:22:00,[-54.21245421245421|116.48351648351648|-1500.3663003663003|-488.64468864468864|-12.454212454212454]
8,2026-02-10 20:22:00,[-15.384615384615385|-167.76556776556777|-19.047619047619047|-119.41391941391942|-190.47619047619048]
9,2026-02-10 20:22:00,[-27.106227106227106|-153.84615384615384|-66.66666666666667|-88.64468864468864|-191.2087912087912]
10,2026-02-10 20:22:00,[-9.523809523809524|-143.5897435897436|-85.71428571428571|-97.43589743589743|-221.24542124542126]
11,2026-02-10 20:22:00,[-17.582417582417584|-144.32234432234432|-115.01831501831502|1499.6336996336997|1499.6336996336997]
12,2026-02-10 20:22:00,[1499.6336996336997|-59.34065934065934|-254.94505494505495|-24.175824175824175|-205.86080586080587]
13,2026-02-10 20:22:00,[-16.84981684981685|-126.00732600732601|-140.65934065934067|-40.29304029304029|-230.03663003663004]
14,2026-02-10 20:22:00,[-14.652014652014651|-127.47252747252747|-167.03296703296704|16.84981684981685|-249.08424908424908]
15,2026-02-10 20:22:00,[10.989010989010989|-110.62271062271063|-169.23076923076923|19.78021978021978|-1278.3882783882784]
16,2026-02-10 20:22:00,[-295.97069597069594|-9.523809523809524|-152.38095238095238|-19.78021978021978|-241.02564102564102]
17,2026-02-10 20:22:00,[3.663003663003663|-112.08791208791209|-170.6959706959707|27.83882783882784|-253.4798534798535]
18,2026-02-10 20:22:00,[-17.582417582417584|-112.08791208791209|-183.15018315018315|30.036630036630036|-230.76923076923077]
19,2026-02-10 20:22:00,[5.86080586080586|-107.6923076923077|-170.6959706959707|-25.641025641025642|-239.56043956043956]
20,2026-02-10 20:22:00,[806.5934065934066|-6.593406593406593|-238.0952380952381|19.78021978021978|-213.1868131868132]
21,2026-02-10 20:22:00,[-13.91941391941392|-115.01831501831502|-177.28937728937728|6.593406593406593|-229.3040293040293]
22,2026-02-10 20:22:00,[-21.245421245421245|-109.15750915750915|-160.43956043956044|-18.315018315018314|-218.3150183150183]
23,2026-02-10 20:22:01,[-20.512820512820515|-122.34432234432235|-170.6959706959707|10.989010989010989|-230.03663003663004]
24,2026-02-10 20:22:01,[-7.326007326007326|233.6996336996337|-178.02197802197801|-6.593406593406593|-229.3040293040293]
25,2026-02-10 20:22:01,[-21.245421245421245|-120.87912087912088|-172.16117216117217|-26.373626373626372|-224.9084249084249]
26,2026-02-10 20:22:01,[-13.186813186813186|-107.6923076923077|-164.83516483516485|13.91941391941392|-239.56043956043956]
27,2026-02-10 20:22:01,[-11.72161172161172|-113.55311355311355|-171.42857142857142|13.91941391941392|-220.51282051282053]
28,2026-02-10 20:22:01,[-19.78021978021978|-828.5714285714286|-156.04395604395606|50.54945054945055|-63.00366300366301]
29,2026-02-10 20:22:01,[-107.6923076923077|-103.2967032967033|-101.0989010989011|-101.83150183150182|-99.63369963369964]
30,2026-02-10 20:22:01,[-85.71428571428571|-79.85347985347985|-86.44688644688645|-89.37728937728937|-94.50549450549451]
31,2026-02-10 20:22:01,[-96.7032967032967|-100.36630036630036|-98.9010989010989|-136.996336996337|-106.22710622710623]
32,2026-02-10 20:22:01,[-102.56410256410257|-106.22710622710623|-147.25274725274724|-438.82783882783883|-878.3882783882784]
33,2026-02-10 20:22:01,[-1136.996336996337|-1419.7802197802198|-1500.3663003663003|-1500.3663003663003|-1500.3663003663003]
34,2026-02-10 20:22:01,[-1500.3663003663003|-1500.3663003663003|-1500.3663003663003|-1500.3663003663003|-1500.3663003663003]
35,2026-02-10 20:22:01,[-1500.3663003663003|-1500.3663003663003|-1500.3663003663003|-1500.3663003663003|-1500.3663003663003]
36,2026-02-10 20:22:01,[-1500.3663003663003|-1500.3663003663003|-1500.3663003663003|-1500.3663003663003|-1500.3663003663003]
37,2026-02-10 20:22:01,[-1500.3663003663003|-1500.3663003663003|-1500.3663003663003|-1500.3663003663003|-1500.3663003663003]
38,2026-02-10 20:22:01,[-1500.3663003663003|-1500.3663003663003|-1500.3663003663003|-1500.3663003663003|-1500.3663003663003]
39,2026-02-10 20:22:01,[-1500.3663003663003|-1500.3663003663003|-1500.3663003663003|-1500.3663003663003|-1500.3663003663003]
40,2026-02-10 20:22:01,[-1500.3663003663003|-1500.3663003663003|-1500.3663003663003|-1500.3663003663003|-1500.3663003663003]
41,2026-02-10 20:22:01,[-1500.3663003663003|-1500.3663003663003|-1500.3663003663003|-1500.3663003663003|-1500.3663003663003]
42,2026-02-10 20:22:01,[-1500.3663003663003|-1500.3663003663003|-1500.3663003663003|-1500.3663003663003|-1500.3663003663003]
43,2026-02-10 20:22:01,[-1500.3663003663003|-1500.3663003663003|-1500.3663003663003|-1500.3663003663003|550.1831501831501]
44,2026-02-10 20:22:01,[1499.6336996336997|1499.6336996336997|1499.6336996336997|1499.6336996336997|1499.6336996336997]
45,2026-02-10 20:22:01,[1499.6336996336997|1499.6336996336997|1499.6336996336997|1499.6336996336997|1499.6336996336997]
46,2026-02-10 20:22:01,[1499.6336996336997|1499.6336996336997|1499.6336996336997|1458.6080586080586|1499.6336996336997]
47,2026-02-10 20:22:01,[1499.6336996336997|1499.6336996336997|1499.6336996336997|1499.6336996336997|1499.6336996336997]
48,2026-02-10 20:22:01,[1499.6336996336997|1499.6336996336997|1499.6336996336997|1499.6336996336997|1499.6336996336997]
49,2026-02-10 20:22:02,[1499.6336996336997|1499.6336996336997|1499.6336996336997|1452.7472527472528|1499.6336996336997]
50,2026-02-10 20:22:02,[1499.6336996336997|1499.6336996336997|1499.6336996336997|1499.6336996336997|1499.6336996336997]
51,2026-02-10 20:22:02,[1499.6336996336997|1499.6336996336997|1499.6336996336997|1499.6336996336997|1499.6336996336997]
52,2026-02-10 20:22:02,[1499.6336996336997|1499.6336996336997|1499.6336996336997|1449.084249084249|1499.6336996336997]
53,2026-02-10 20:22:02,[1499.6336996336997|1499.6336996336997|1499.6336996336997|1499.6336996336997|1499.6336996336997]
54,2026-02-10 20:22:02,[1499.6336996336997|1499.6336996336997|1499.6336996336997|1499.6336996336997|1499.6336996336997]
55,2026-02-10 20:22:02,[1499.6336996336997|1499.6336996336997|1499.6336996336997|1452.7472527472528|1499.6336996336997]
56,2026-02-10 20:22:02,[1499.6336996336997|1499.6336996336997|1499.6336996336997|1499.6336996336997|1499.6336996336997]
57,2026-02-10 20:22:02,[1499.6336996336997|1499.6336996336997|1499.6336996336997|1499.6336996336997|1499.6336996336997]
58,2026-02-10 20:22:02,[1499.6336996336997|1499.6336996336997|1167.032967032967|1452.7472527472528|1063.003663003663]
59,2026-02-10 20:22:02,[1074.7252747252746|1040.2930402930403|865.934065934066|810.2564102564103|813.919413919414]
60,2026-02-10 20:22:02,[895.9706959706959|697.4358974358975|687.9120879120879|653.4798534798534|687.9120879120879]
61,2026-02-10 20:22:02,[678.3882783882784|583.8827838827839|588.2783882783883|602.9304029304029|463.003663003663]
62,2026-02-10 20:22:02,[421.24542124542126|350.9157509157509|454.94505494505495|449.0842490842491|263.003663003663]
63,2026-02-10 20:22:02,[353.84615384615387|264.46886446886447|302.56410256410254|260.8058608058608|135.53113553113553]
64,2026-02-10 20:22:02,[107.6923076923077|109.15750915750915|-40.29304029304029|12.454212454212454|-38.827838827838825]
65,2026-02-10 20:22:02,[21.245421245421245|-58.608058608058606|-85.71428571428571|-38.095238095238095|-135.53113553113553]
66,2026-02-10 20:22:02,[42.49084249084249|-73.26007326007326|-65.93406593406593|15.384615384615385|-73.99267399267399]
67,2026-02-10 20:22:02,[43.223443223443226|13.186813186813186|-27.106227106227106|-122.34432234432235|-202.1978021978022]
68,2026-02-10 20:22:02,[-229.3040293040293|-227.83882783882783|-268.86446886446885|-241.75824175824175|-343.5897435897436]
69,2026-02-10 20:22:02,[-365.56776556776555|-394.13919413919416|-428.57142857142856|-416.8498168498169|-550.1831501831501]
70,2026-02-10 20:22:02,[-509.15750915750914|-400.73260073260076|-521.6117216117216|-464.46886446886447|-532.6007326007326]
71,2026-02-10 20:22:02,[-449.0842490842491|-525.2747252747253|-570.6959706959707|-471.06227106227107|-501.83150183150184]
72,2026-02-10 20:22:02,[-555.3113553113553|-679.8534798534798|-194.13919413919413|123.80952380952381|268.86446886446885]
73,2026-02-10 20:22:03,[87.17948717948718|-605.8608058608058|-765.5677655677656|-640.2930402930403|-707.6923076923077]
74,2026-02-10 20:22:03,[-684.2490842490843|-630.7692307692307|-660.8058608058608|-544.3223443223443|-707.6923076923077]
75,2026-02-10 20:22:03,[-590.4761904761905|-632.967032967033|-627.1062271062272|-553.1135531135532|-636.6300366300367]
76,2026-02-10 20:22:03,[-495.23809523809524|-572.1611721611722|-615.3846153846154|-476.9230769230769|-556.0439560439561]
77,2026-02-10 20:22:03,[-575.0915750915751|-523.8095238095239|-484.24908424908426|-361.17216117216117|-580.952380952381]
78,2026-02-10 20:22:03,[-517.2161172161173|-430.03663003663|-498.9010989010989|-542.8571428571429|-517.9487179487179]
79,2026-02-10 20:22:03,[-570.6959706959707|-580.2197802197802|-647.6190476190476|-569.2307692307693|-680.5860805860806]
80,2026-02-10 20:22:03,[-638.0952380952381|-715.018315018315|-651.2820512820513|-596.3369963369963|-595.6043956043956]
81,2026-02-10 20:22:03,[-524.5421245421245|-543.5897435897435|-651.2820512820513|-589.7435897435897|-539.92673992674]
82,2026-02-10 20:22:03,[-462.27106227106225|-423.4432234432234|-525.2747252747253|-509.15750915750914|-443.2234432234432]
83,2026-02-10 20:22:03,[-405.86080586080584|-535.5311355311355|-477.65567765567766|-391.2087912087912|-519.4139194139194]
84,2026-02-10 20:22:03,[-426.3736263736264|-395.6043956043956|-435.16483516483515|-495.97069597069594|-504.76190476190476]
85,2026-02-10 20:22:03,[-355.3113553113553|-424.1758241758242|-522.3443223443223|-352.3809523809524|-320.1465201465202]
86,2026-02-10 20:22:03,[-436.6300366300366|-521.6117216117216|-384.61538461538464|-367.76556776556777|-417.5824175824176]
87,2026-02-10 20:22:03,[-369.96336996337|-516.4835164835165|-455.67765567765565|-369.96336996337|-328.93772893772893]
88,2026-02-10 20:22:03,[63.00366300366301|395.6043956043956|380.2197802197802|-181.6849816849817|-618.3150183150183]
89,2026-02-10 20:22:03,[-545.054945054945|-471.06227106227107|-381.68498168498166|-302.56410256410254|-364.1025641025641]
90,2026-02-10 20:22:03,[-241.02564102564102|-334.7985347985348|-317.2161172161172|-149.45054945054946|-314.2857142857143]
91,2026-02-10 20:22:03,[-213.1868131868132|-146.5201465201465|-148.71794871794873|-153.1135531135531|-219.04761904761904]
92,2026-02-10 20:22:03,[-110.62271062271063|-127.47252747252747|-63.00366300366301|-98.9010989010989|-84.24908424908425]
93,2026-02-10 20:22:03,[22.71062271062271|-156.04395604395606|-47.61904761904762|81.31868131868131|-37.362637362637365]
94,2026-02-10 20:22:03,[-73.99267399267399|-119.41391941391942|-150.1831501831502|-146.5201465201465|-249.08424908424908]
95,2026-02-10 20:22:03,[-197.06959706959708|-229.3040293040293|-229.3040293040293|-71.06227106227107|-220.51282051282053]
96,2026-02-10 20:22:03,[-208.7912087912088|-212.45421245421247|-172.8937728937729|-119.41391941391942|-197.06959706959708]
97,2026-02-10 20:22:03,[-193.4065934065934|-197.06959706959708|-166.3003663003663|-153.1135531135531|-146.5201465201465]
98,2026-02-10 20:22:04,[-101.83150183150182|-147.25274725274724|-161.9047619047619|-28.571428571428573|-276.1904761904762]
99,2026-02-10 20:22:04,[-126.00732600732601|-79.85347985347985|-170.6959706959707|-115.01831501831502|-273.2600732600733]
100,2026-02-10 20:22:04,[-63.00366300366301|-38.827838827838825|-60.8058608058608|-6.593406593406593|-169.23076923076923]
101,2026-02-10 20:22:04,[-127.47252747252747|-78.3882783882784|-107.6923076923077|-41.75824175824176|-146.5201465201465]
102,2026-02-10 20:22:04,[-119.41391941391942|-149.45054945054946|-52.014652014652015|-106.22710622710623|-183.15018315018315]
103,2026-02-10 20:22:04,[175.0915750915751|425.64102564102564|635.1648351648352|465.2014652014652|-119.41391941391942]
104,2026-02-10 20:22:04,[-290.84249084249086|-172.8937728937729|-207.32600732600733|-112.08791208791209|-180.21978021978023]
105,2026-02-10 20:22:04,[-153.1135531135531|-142.85714285714286|-52.014652014652015|27.106227106227106|-170.6959706959707]
106,2026-02-10 20:22:04,[-73.99267399267399|-103.2967032967033|-36.63003663003663|8.058608058608058|-132.6007326007326]
107,2026-02-10 20:22:04,[-18.315018315018314|-32.967032967032964|-73.99267399267399|135.53113553113553|53.47985347985348]
108,2026-02-10 20:22:04,[57.875457875457876|192.67399267399267|53.47985347985348|62.27106227106227|-74.72527472527473]
109,2026-02-10 20:22:04,[-37.362637362637365|-36.63003663003663|-17.582417582417584|73.99267399267399|-93.77289377289377]
110,2026-02-10 20:22:04,[-76.92307692307692|-109.89010989010988|-158.97435897435898|-144.32234432234432|-217.58241758241758]
111,2026-02-10 20:22:04,[-101.83150183150182|-183.88278388278388|-147.25274725274724|-25.641025641025642|-170.6959706959707]
112,2026-02-10 20:22:04,[-74.72527472527473|-157.50915750915752|-107.6923076923077|-126.73992673992674|-153.1135531135531]
113,2026-02-10 20:22:04,[-90.10989010989012|-89.37728937728937|-164.83516483516485|-118.68131868131869|-169.23076923076923]
114,2026-02-10 20:22:04,[-71.06227106227107|-97.43589743589743|-213.1868131868132|-122.34432234432235|-134.06593406593407]
115,2026-02-10 20:22:04,[-60.07326007326007|-99.63369963369964|-161.17216117216117|-114.28571428571429|-131.86813186813185]
116,2026-02-10 20:22:04,[10.989010989010989|-82.78388278388279|-98.16849816849818|-12.454212454212454|-286.4468864468864]
117,2026-02-10 20:22:04,[-115.01831501831502|-95.23809523809524|-167.76556776556777|-135.53113553113553|-90.10989010989012]
118,2026-02-10 20:22:04,[122.34432234432235|538.4615384615385|767.032967032967|389.010989010989|-170.6959706959707]
119,2026-02-10 20:22:04,[-265.9340659340659|-121.6117216117216|-174.35897435897436|15.384615384615385|-71.06227106227107]
120,2026-02-10 20:22:04,[-47.61904761904762|-84.24908424908425|-76.19047619047619|-24.90842490842491|-78.3882783882784]
121,2026-02-10 20:22:04,[-13.91941391941392|-58.608058608058606|-76.92307692307692|-31.501831501831504|17.582417582417584]
122,2026-02-10 20:22:04,[54.21245421245421|8.058608058608058|-29.304029304029303|116.48351648351648|108.42490842490842]
123,2026-02-10 20:22:04,[31.501831501831504|54.21245421245421|19.78021978021978|120.87912087912088|44.688644688644686]
124,2026-02-10 20:22:05,[30.036630036630036|-16.117216117216117|-47.61904761904762|-53.47985347985348|-79.85347985347985]
125,2026-02-10 20:22:05,[-60.8058608058608|-158.97435897435898|-216.11721611721612|-33.6996336996337|-122.34432234432235]
126,2026-02-10 20:22:05,[-132.6007326007326|-115.01831501831502|-223.44322344322345|-24.90842490842491|-88.64468864468864]
127,2026-02-10 20:22:05,[-32.234432234432234|-80.58608058608058|-171.42857142857142|-64.46886446886447|-115.01831501831502]
128,2026-02-10 20:22:05,[-94.50549450549451|-93.77289377289377|-136.996336996337|-24.175824175824175|-229.3040293040293]
129,2026-02-10 20:22:05,[-49.08424908424909|-106.95970695970696|-141.3919413919414|-4.395604395604396|-182.41758241758242]
130,2026-02-10 20:22:05,[-17.582417582417584|-13.91941391941392|-95.97069597069597|-97.43589743589743|-87.17948717948718]
131,2026-02-10 20:22:05,[-76.19047619047619|-59.34065934065934|-55.67765567765568|21.245421245421245|-18.315018315018314]
132,2026-02-10 20:22:05,[66.66666666666667|-19.78021978021978|-86.44688644688645|40.29304029304029|-76.19047619047619]
133,2026-02-10 20:22:05,[-31.501831501831504|347.98534798534797|780.2197802197802|758.974358974359|69.59706959706959]
134,2026-02-10 20:22:05,[-213.91941391941393|-267.3992673992674|-146.5201465201465|-55.67765567765568|-144.32234432234432]
135,2026-02-10 20:22:05,[-84.98168498168498|-115.01831501831502|-157.50915750915752|6.593406593406593|-95.97069597069597]
136,2026-02-10 20:22:05,[-38.827838827838825|-123.80952380952381|-109.15750915750915|-38.827838827838825|-125.27472527472527]
137,2026-02-10 20:22:05,[5.128205128205129|-6.593406593406593|63.73626373626374|-15.384615384615385|-3.663003663003663]
138,2026-02-10 20:22:05,[112.08791208791209|109.89010989010988|169.23076923076923|136.996336996337|110.62271062271063]
139,2026-02-10 20:22:05,[128.2051282051282|78.3882783882784|13.91941391941392|-4.395604395604396|-84.24908424908425]
140,2026-02-10 20:22:05,[-49.81684981684982|-88.64468864468864|-157.50915750915752|-113.55311355311355|-182.41758241758242]
141,2026-02-10 20:22:05,[-123.80952380952381|-97.43589743589743|-204.3956043956044|-123.07692307692308|-136.996336996337]
142,2026-02-10 20:22:05,[-54.94505494505494|-43.223443223443226|-150.1831501831502|-52.014652014652015|-135.53113553113553]
143,2026-02-10 20:22:05,[-135.53113553113553|-50.54945054945055|-167.76556776556777|40.29304029304029|-179.48717948717947]
144,2026-02-10 20:22:05,[-43.223443223443226|-63.73626373626374|-110.62271062271063|-54.94505494505494|-106.22710622710623]
145,2026-02-10 20:22:05,[-82.78388278388279|-86.44688644688645|-101.83150183150182|-100.36630036630036|-106.95970695970696]
146,2026-02-10 20:22:05,[-79.12087912087912|42.49084249084249|-142.85714285714286|-115.01831501831502|-173.62637362637363]
147,2026-02-10 20:22:05,[-129.67032967032966|-111.35531135531136|-156.04395604395606|-148.71794871794873|-101.83150183150182]
148,2026-02-10 20:22:05,[-143.5897435897436|-182.41758241758242|41.02564102564103|635.1648351648352|723.0769230769231]
149,2026-02-10 20:22:06,[454.2124542124542|-110.62271062271063|-346.5201465201465|-169.96336996336996|-145.78754578754578]
150,2026-02-10 20:22:06,[-52.014652014652015|-88.64468864468864|-109.15750915750915|-27.106227106227106|-166.3003663003663]
151,2026-02-10 20:22:06,[-27.106227106227106|34.43223443223443|-60.8058608058608|18.315018315018314|-121.6117216117216]
152,2026-02-10 20:22:06,[-8.058608058608058|20.512820512820515|-27.106227106227106|76.19047619047619|-119.41391941391942]
153,2026-02-10 20:22:06,[72.52747252747253|103.2967032967033|120.14652014652015|27.106227106227106|-135.53113553113553]
154,2026-02-10 20:22:06,[79.85347985347985|139.9267399267399|37.362637362637365|-78.3882783882784|-98.9010989010989]
155,2026-02-10 20:22:06,[-61.53846153846154|-158.97435897435898|-143.5897435897436|-56.41025641025641|-172.8937728937729]
156,2026-02-10 20:22:06,[-228.57142857142858|-197.06959706959708|-260.0732600732601|-183.88278388278388|-205.86080586080587]
157,2026-02-10 20:22:06,[-120.87912087912088|-224.9084249084249|-287.9120879120879|-17.582417582417584|-235.16483516483515]
158,2026-02-10 20:22:06,[-106.22710622710623|-141.3919413919414|-254.94505494505495|-219.04761904761904|-235.89743589743588]
159,2026-02-10 20:22:06,[-226.37362637362637|-130.4029304029304|-252.74725274725276|-178.02197802197801|-314.2857142857143]
160,2026-02-10 20:22:06,[-188.2783882783883|-217.58241758241758|-241.02564102564102|-224.9084249084249|-336.2637362637363]
161,2026-02-10 20:22:06,[-164.83516483516485|-32.234432234432234|-218.3150183150183|-144.32234432234432|-227.83882783882783]
162,2026-02-10 20:22:06,[-266.6666666666667|-383.1501831501831|-164.83516483516485|-94.50549450549451|-230.03663003663004]
163,2026-02-10 20:22:06,[-265.9340659340659|-172.16117216117217|-175.0915750915751|260.8058608058608|646.8864468864468]
164,2026-02-10 20:22:06,[439.56043956043953|-282.05128205128204|-501.83150183150184|-405.86080586080584|-362.6373626373626]
165,2026-02-10 20:22:06,[-194.87179487179486|-178.75457875457874|-301.0989010989011|-81.31868131868131|-131.86813186813185]
166,2026-02-10 20:22:06,[-112.08791208791209|-132.6007326007326|-199.26739926739927|-117.94871794871794|-152.38095238095238]
167,2026-02-10 20:22:06,[-108.42490842490842|-106.95970695970696|-117.94871794871794|-4.395604395604396|-13.91941391941392]
168,2026-02-10 20:22:06,[-30.036630036630036|-50.54945054945055|-23.44322344322344|75.45787545787546|-19.047619047619047]
169,2026-02-10 20:22:06,[-17.582417582417584|-13.91941391941392|-52.747252747252745|17.582417582417584|-66.66666666666667]
170,2026-02-10 20:22:06,[-63.73626373626374|-208.7912087912088|-205.86080586080587|-112.08791208791209|-216.11721611721612]
171,2026-02-10 20:22:06,[-164.10256410256412|-188.2783882783883|-194.13919413919413|-113.55311355311355|-301.83150183150184]
172,2026-02-10 20:22:06,[-182.41758241758242|-201.46520146520146|-190.47619047619048|-106.22710622710623|-226.37362637362637]
173,2026-02-10 20:22:07,[-95.23809523809524|-131.86813186813185|-213.1868131868132|-116.48351648351648|-142.12454212454213]
174,2026-02-10 20:22:07,[-227.1062271062271|-97.43589743589743|-167.76556776556777|-110.62271062271063|-194.87179487179486]
175,2026-02-10 20:22:07,[-134.7985347985348|-167.76556776556777|-161.9047619047619|-131.13553113553112|-142.85714285714286]
176,2026-02-10 20:22:07,[-85.71428571428571|-28.571428571428573|-176.55677655677655|-155.3113553113553|-205.86080586080587]
177,2026-02-10 20:22:07,[-62.27106227106227|-182.41758241758242|-158.97435897435898|-80.58608058608058|-144.32234432234432]
178,2026-02-10 20:22:07,[-84.98168498168498|-60.8058608058608|232.23443223443223|982.4175824175824|676.1904761904761]
179,2026-02-10 20:22:07,[156.04395604395606|-308.42490842490844|-324.54212454212455|-63.00366300366301|-120.14652014652015]
180,2026-02-10 20:22:07,[-42.49084249084249|-101.83150183150182|-98.9010989010989|75.45787545787546|-109.15750915750915]
181,2026-02-10 20:22:07,[-65.93406593406593|-31.501831501831504|8.058608058608058|-21.978021978021978|-105.49450549450549]
182,2026-02-10 20:22:07,[38.827838827838825|84.98168498168498|81.31868131868131|38.095238095238095|69.59706959706959]
183,2026-02-10 20:22:07,[109.15750915750915|25.641025641025642|60.8058608058608|169.23076923076923|72.52747252747253]
184,2026-02-10 20:22:07,[115.75091575091575|61.53846153846154|-13.91941391941392|-15.384615384615385|-107.6923076923077]
185,2026-02-10 20:22:07,[-31.501831501831504|-77.65567765567765|-136.996336996337|-76.92307692307692|-21.245421245421245]
186,2026-02-10 20:22:07,[-29.304029304029303|-62.27106227106227|-62.27106227106227|79.12087912087912|-131.13553113553112]
187,2026-02-10 20:22:07,[-122.34432234432235|-27.106227106227106|-103.2967032967033|-100.36630036630036|-90.10989010989012]
188,2026-02-10 20:22:07,[-8.058608058608058|-68.13186813186813|-120.87912087912088|-38.095238095238095|-117.94871794871794]
189,2026-02-10 20:22:07,[-83.51648351648352|-120.87912087912088|-144.32234432234432|-90.10989010989012|-50.54945054945055]
190,2026-02-10 20:22:07,[-143.5897435897436|-161.9047619047619|-134.7985347985348|-56.41025641025641|-101.83150183150182]
191,2026-02-10 20:22:07,[-68.13186813186813|-117.94871794871794|-52.014652014652015|-134.06593406593407|-197.8021978021978]
192,2026-02-10 20:22:07,[-114.28571428571429|-124.54212454212454|-75.45787545787546|-115.01831501831502|-229.3040293040293]
193,2026-02-10 20:22:07,[-97.43589743589743|308.42490842490844|583.8827838827839|871.0622710622711|38.827838827838825]
194,2026-02-10 20:22:07,[-261.53846153846155|-216.11721611721612|-106.95970695970696|-141.3919413919414|-224.9084249084249]
195,2026-02-10 20:22:07,[-66.66666666666667|-124.54212454212454|-191.2087912087912|-60.8058608058608|-167.76556776556777]
196,2026-02-10 20:22:07,[-79.85347985347985|-21.245421245421245|-79.85347985347985|-58.608058608058606|-158.24175824175825]
197,2026-02-10 20:22:07,[16.84981684981685|-71.7948717948718|-36.63003663003663|81.31868131868131|12.454212454212454]
198,2026-02-10 20:22:07,[21.978021978021978|25.641025641025642|30.036630036630036|91.57509157509158|-50.54945054945055]
199,2026-02-10 20:22:08,[18.315018315018314|6.593406593406593|-105.49450549450549|-32.967032967032964|-161.17216117216117]
200,2026-02-10 20:22:08,[-180.95238095238096|-87.17948717948718|-76.92307692307692|-174.35897435897436|-302.56410256410254]
201,2026-02-10 20:22:08,[-178.75457875457874|-173.62637362637363|-201.46520146520146|-238.82783882783883|-223.44322344322345]
202,2026-02-10 20:22:08,[-149.45054945054946|-164.10256410256412|-166.3003663003663|-207.32600732600733|-190.47619047619048]
203,2026-02-10 20:22:08,[-119.41391941391942|-156.04395604395606|-160.43956043956044|-109.15750915750915|-230.76923076923077]
204,2026-02-10 20:22:08,[-66.66666666666667|-109.15750915750915|-170.6959706959707|-181.6849816849817|-260.0732600732601]
205,2026-02-10 20:22:08,[-16.84981684981685|-63.00366300366301|-94.50549450549451|-73.26007326007326|-160.43956043956044]
206,2026-02-10 20:22:08,[-122.34432234432235|-98.16849816849818|-145.78754578754578|-156.7765567765568|-261.53846153846155]
207,2026-02-10 20:22:08,[-143.5897435897436|-148.71794871794873|-37.362637362637365|387.54578754578756|679.1208791208791]
208,2026-02-10 20:22:08,[649.0842490842491|120.87912087912088|-282.05128205128204|-224.17582417582418|-309.8901098901099]
209,2026-02-10 20:22:08,[-217.58241758241758|-95.23809523809524|-172.16117216117217|-59.34065934065934|-143.5897435897436]
210,2026-02-10 20:22:08,[-2.197802197802198|-97.43589743589743|-46.88644688644688|-25.641025641025642|-106.22710622710623]
211,2026-02-10 20:22:08,[-53.47985347985348|-108.42490842490842|-43.223443223443226|-24.175824175824175|-63.73626373626374]
212,2026-02-10 20:22:08,[46.15384615384615|-28.571428571428573|65.2014652014652|131.86813186813185|-32.234432234432234]
213,2026-02-10 20:22:08,[76.92307692307692|-6.593406593406593|-72.52747252747253|-8.058608058608058|-78.3882783882784]
214,2026-02-10 20:22:08,[-76.19047619047619|-157.50915750915752|-178.75457875457874|-207.32600732600733|-227.1062271062271]
215,2026-02-10 20:22:08,[-175.0915750915751|-235.16483516483515|-237.36263736263737|-173.62637362637363|-255.67765567765568]
216,2026-02-10 20:22:08,[-247.61904761904762|-174.35897435897436|-169.23076923076923|-161.17216117216117|-248.35164835164835]
217,2026-02-10 20:22:08,[-147.25274725274724|-320.8791208791209|-217.58241758241758|-78.3882783882784|-217.58241758241758]
218,2026-02-10 20:22:08,[-205.86080586080587|-156.7765567765568|-242.49084249084248|-126.73992673992674|-223.44322344322345]
219,2026-02-10 20:22:08,[-131.13553113553112|-224.9084249084249|-287.9120879120879|-120.87912087912088|-62.27106227106227]
220,2026-02-10 20:22:08,[-55.67765567765568|-136.26373626373626|-224.9084249084249|-200.0|-249.08424908424908]
221,2026-02-10 20:22:08,[-117.94871794871794|-144.32234432234432|-204.3956043956044|-149.45054945054946|-311.35531135531136]
222,2026-02-10 20:22:08,[-32.967032967032964|393.4065934065934|765.5677655677656|538.4615384615385|-82.78388278388279]
223,2026-02-10 20:22:09,[-355.3113553113553|-196.33699633699635|-229.3040293040293|-147.98534798534797|-107.6923076923077]
224,2026-02-10 20:22:09,[-145.05494505494505|-9.523809523809524|-134.06593406593407|-72.52747252747253|-95.97069597069597]
225,2026-02-10 20:22:09,[-53.47985347985348|-94.50549450549451|-64.46886446886447|52.014652014652015|38.095238095238095]
226,2026-02-10 20:22:09,[15.384615384615385|62.27106227106227|-16.84981684981685|147.25274725274724|151.64835164835165]
227,2026-02-10 20:22:09,[71.06227106227107|78.3882783882784|88.64468864468864|191.2087912087912|80.58608058608058]
228,2026-02-10 20:22:09,[104.76190476190476|114.28571428571429|-60.07326007326007|120.87912087912088|68.86446886446886]
229,2026-02-10 20:22:09,[-54.21245421245421|-13.91941391941392|-143.5897435897436|-97.43589743589743|-148.71794871794873]
230,2026-02-10 20:22:09,[-56.41025641025641|-47.61904761904762|-120.87912087912088|-54.94505494505494|-87.17948717948718]
231,2026-02-10 20:22:09,[-40.29304029304029|-26.373626373626372|-87.17948717948718|-25.641025641025642|-72.52747252747253]
232,2026-02-10 20:22:09,[-120.87912087912088|-19.78021978021978|-100.36630036630036|5.128205128205129|-20.512820512820515]
233,2026-02-10 20:22:09,[5.86080586080586|-19.78021978021978|-123.07692307692308|-73.99267399267399|-141.3919413919414]
234,2026-02-10 20:22:09,[-22.71062271062271|-119.41391941391942|-54.94505494505494|-6.593406593406593|-16.84981684981685]
235,2026-02-10 20:22:09,[-12.454212454212454|-78.3882783882784|-135.53113553113553|-159.7069597069597|-81.31868131868131]
236,2026-02-10 20:22:09,[-89.37728937728937|-115.01831501831502|-141.3919413919414|-65.2014652014652|-246.8864468864469]
237,2026-02-10 20:22:09,[10.989010989010989|506.2271062271062|714.2857142857143|498.9010989010989|-24.175824175824175]
238,2026-02-10 20:22:09,[-306.959706959707|-171.42857142857142|-238.0952380952381|-123.07692307692308|-183.15018315018315]
239,2026-02-10 20:22:09,[-95.97069597069597|-120.87912087912088|-235.16483516483515|-98.9010989010989|-169.23076923076923]
240,2026-02-10 20:22:09,[-79.85347985347985|-144.32234432234432|-153.84615384615384|6.593406593406593|-78.3882783882784]
241,2026-02-10 20:22:09,[-30.76923076923077|31.501831501831504|-15.384615384615385|27.106227106227106|-66.66666666666667]
242,2026-02-10 20:22:09,[-98.9010989010989|71.7948717948718|34.43223443223443|-63.00366300366301|-82.78388278388279]
243,2026-02-10 20:22:09,[-19.78021978021978|-51.282051282051285|-106.22710622710623|-75.45787545787546|-153.84615384615384]
244,2026-02-10 20:22:09,[-78.3882783882784|-134.06593406593407|-260.0732600732601|-192.67399267399267|-277.65567765567766]
245,2026-02-10 20:22:09,[-208.7912087912088|-164.83516483516485|-263.003663003663|-213.91941391941393|-236.63003663003664]
246,2026-02-10 20:22:09,[-135.53113553113553|-110.62271062271063|-156.7765567765568|-167.76556776556777|-150.1831501831502]
247,2026-02-10 20:22:09,[-147.25274725274724|-214.65201465201466|-249.08424908424908|-117.94871794871794|-225.64102564102564]
248,2026-02-10 20:22:10,[-234.43223443223442|-181.6849816849817|-216.11721611721612|-134.06593406593407|-172.16117216117217]
249,2026-02-10 20:22:10,[-194.13919413919413|-169.23076923076923|-230.76923076923077|-123.80952380952381|-134.7985347985348]
250,2026-02-10 20:22:10,[-202.1978021978022|-205.86080586080587|-173.62637362637363|-88.64468864468864|-194.13919413919413]
251,2026-02-10 20:22:10,[-141.3919413919414|-307.6923076923077|-243.95604395604394|-173.62637362637363|-251.28205128205127]
252,2026-02-10 20:22:10,[-156.7765567765568|-236.63003663003664|-263.7362637362637|-154.57875457875457|184.6153846153846]
253,2026-02-10 20:22:10,[613.1868131868132|605.1282051282051|-93.77289377289377|-400.0|-308.42490842490844]
254,2026-02-10 20:22:10,[-331.86813186813185|-271.79487179487177|-289.3772893772894|-231.5018315018315|-208.7912087912088]
255,2026-02-10 20:22:10,[-178.02197802197801|-169.23076923076923|-271.79487179487177|-112.08791208791209|-174.35897435897436]
256,2026-02-10 20:22:10,[-217.58241758241758|-123.80952380952381|-133.33333333333334|-188.2783882783883|-194.87179487179486]
257,2026-02-10 20:22:10,[-156.04395604395606|-119.41391941391942|-98.9010989010989|-32.234432234432234|-68.13186813186813]
258,2026-02-10 20:22:10,[-55.67765567765568|-120.87912087912088|-175.0915750915751|-38.827838827838825|-120.87912087912088]
259,2026-02-10 20:22:10,[-130.4029304029304|-144.32234432234432|-201.46520146520146|-205.86080586080587|-381.68498168498166]
260,2026-02-10 20:22:10,[-270.3296703296703|-252.74725274725276|-358.24175824175825|-276.1904761904762|-307.6923076923077]
261,2026-02-10 20:22:10,[-310.6227106227106|-204.3956043956044|-258.6080586080586|-216.84981684981685|-289.3772893772894]
262,2026-02-10 20:22:10,[-332.6007326007326|-252.74725274725276|-194.87179487179486|-235.89743589743588|-260.0732600732601]
263,2026-02-10 20:22:10,[-187.54578754578753|-173.62637362637363|-224.9084249084249|-169.23076923076923|-219.04761904761904]
264,2026-02-10 20:22:10,[-141.3919413919414|-201.46520146520146|-224.9084249084249|-131.86813186813185|-181.6849816849817]
265,2026-02-10 20:22:10,[-94.50549450549451|-101.83150183150182|-118.68131868131869|-153.1135531135531|-267.3992673992674]
266,2026-02-10 20:22:10,[-216.11721611721612|-88.64468864468864|-32.234432234432234|3.663003663003663|-71.7948717948718]
267,2026-02-10 20:22:10,[-12.454212454212454|-98.9010989010989|-106.22710622710623|-63.00366300366301|-258.6080586080586]
268,2026-02-10 20:22:10,[-147.25274725274724|-59.34065934065934|-237.36263736263737|-114.28571428571429|-16.84981684981685]
269,2026-02-10 20:22:10,[-78.3882783882784|-59.34065934065934|78.3882783882784|19.047619047619047|-35.8974358974359]
270,2026-02-10 20:22:10,[73.99267399267399|73.99267399267399|19.047619047619047|37.362637362637365|13.91941391941392]
271,2026-02-10 20:22:10,[-2.197802197802198|-97.43589743589743|-38.827838827838825|22.71062271062271|-214.65201465201466]
272,2026-02-10 20:22:10,[-179.48717948717947|-167.76556776556777|-164.10256410256412|228.57142857142858|597.0695970695971]
273,2026-02-10 20:22:10,[792.6739926739926|209.52380952380952|-127.47252747252747|-148.71794871794873|-180.95238095238096]
274,2026-02-10 20:22:11,[-38.827838827838825|-132.6007326007326|-131.86813186813185|-161.9047619047619|-64.46886446886447]
275,2026-02-10 20:22:11,[18.315018315018314|8.791208791208792|32.967032967032964|171.42857142857142|205.86080586080587]
276,2026-02-10 20:22:11,[264.46886446886447|246.8864468864469|241.75824175824175|263.7362637362637|186.8131868131868]
277,2026-02-10 20:22:11,[316.4835164835165|369.96336996337|304.76190476190476|323.0769230769231|281.31868131868134]
278,2026-02-10 20:22:11,[210.25641025641025|238.0952380952381|191.94139194139194|276.1904761904762|115.01831501831502]
279,2026-02-10 20:22:11,[221.97802197802199|289.3772893772894|150.91575091575092|166.3003663003663|101.83150183150182]
280,2026-02-10 20:22:11,[169.96336996336996|85.71428571428571|33.6996336996337|114.28571428571429|-50.54945054945055]
281,2026-02-10 20:22:11,[67.3992673992674|112.08791208791209|41.02564102564103|68.13186813186813|72.52747252747253]
282,2026-02-10 20:22:11,[112.08791208791209|-5.128205128205129|-28.571428571428573|86.44688644688645|-32.967032967032964]
283,2026-02-10 20:22:11,[-41.75824175824176|-78.3882783882784|-12.454212454212454|50.54945054945055|-93.77289377289377]
284,2026-02-10 20:22:11,[-60.8058608058608|-31.501831501831504|-94.50549450549451|-93.77289377289377|-117.94871794871794]
285,2026-02-10 20:22:11,[-108.42490842490842|-95.97069597069597|-95.23809523809524|-157.50915750915752|-164.83516483516485]
286,2026-02-10 20:22:11,[-93.77289377289377|-118.68131868131869|-302.56410256410254|-160.43956043956044|-179.48717948717947]
287,2026-02-10 20:22:11,[-226.37362637362637|-312.8205128205128|-242.49084249084248|-110.62271062271063|-351.64835164835165]
288,2026-02-10 20:22:11,[-284.98168498168496|-223.44322344322345|-243.95604395604394|-277.65567765567766|-319.4139194139194]
289,2026-02-10 20:22:11,[-276.1904761904762|-230.76923076923077|-273.992673992674|-387.54578754578756|-380.95238095238096]
290,2026-02-10 20:22:11,[-345.05494505494505|-286.4468864468864|-415.38461538461536|-361.17216117216117|-391.94139194139194]
291,2026-02-10 20:22:11,[-266.6666666666667|210.25641025641025|623.4432234432235|485.7142857142857|-263.003663003663]
292,2026-02-10 20:22:11,[-509.8901098901099|-404.3956043956044|-366.3003663003663|-301.0989010989011|-352.3809523809524]
293,2026-02-10 20:22:11,[-342.12454212454213|-313.5531135531136|-240.2930402930403|-194.13919413919413|-319.4139194139194]
294,2026-02-10 20:22:11,[-320.1465201465202|-263.003663003663|-309.8901098901099|-227.83882783882783|-217.58241758241758]
295,2026-02-10 20:22:11,[-173.62637362637363|-235.16483516483515|-224.9084249084249|-129.67032967032966|-99.63369963369964]
296,2026-02-10 20:22:11,[-48.35164835164835|-76.92307692307692|-101.83150183150182|-40.29304029304029|-84.24908424908425]
297,2026-02-10 20:22:11,[-107.6923076923077|-63.73626373626374|-125.27472527472527|-101.83150183150182|-157.50915750915752]
298,2026-02-10 20:22:12,[-201.46520146520146|-265.9340659340659|-295.23809523809524|-219.04761904761904|-257.87545787545787]
299,2026-02-10 20:22:12,[-167.76556776556777|-99.63369963369964|-226.37362637362637|-114.28571428571429|-117.94871794871794]
300,2026-02-10 20:22:12,[-147.25274725274724|-173.62637362637363|-182.41758241758242|-94.50549450549451|-219.78021978021977]
301,2026-02-10 20:22:12,[7.326007326007326|-63.00366300366301|-128.2051282051282|21.245421245421245|-109.15750915750915]
302,2026-02-10 20:22:12,[-122.34432234432235|13.186813186813186|-72.52747252747253|-65.2014652014652|-98.9010989010989]
303,2026-02-10 20:22:12,[10.989010989010989|-41.75824175824176|-43.223443223443226|78.3882783882784|41.75824175824176]
304,2026-02-10 20:22:12,[-63.73626373626374|50.54945054945055|-43.223443223443226|-6.593406593406593|54.94505494505494]
305,2026-02-10 20:22:12,[-9.523809523809524|-63.73626373626374|31.501831501831504|107.6923076923077|23.44322344322344]
306,2026-02-10 20:22:12,[115.01831501831502|28.571428571428573|-15.384615384615385|-21.978021978021978|-41.75824175824176]
307,2026-02-10 20:22:12,[87.91208791208791|32.234432234432234|-60.07326007326007|-9.523809523809524|-62.27106227106227]
308,2026-02-10 20:22:12,[173.62637362637363|647.6190476190476|812.4542124542124|534.7985347985348|-26.373626373626372]
309,2026-02-10 20:22:12,[-333.3333333333333|-156.04395604395606|-160.43956043956044|-72.52747252747253|-75.45787545787546]
310,2026-02-10 20:22:12,[-7.326007326007326|-25.641025641025642|5.128205128205129|-36.63003663003663|-101.83150183150182]
311,2026-02-10 20:22:12,[25.641025641025642|38.827838827838825|-49.81684981684982|37.362637362637365|-88.64468864468864]
312,2026-02-10 20:22:12,[60.8058608058608|31.501831501831504|30.76923076923077|38.827838827838825|30.036630036630036]
313,2026-02-10 20:22:12,[56.41025641025641|115.01831501831502|85.71428571428571|62.27106227106227|43.223443223443226]
314,2026-02-10 20:22:12,[120.87912087912088|68.13186813186813|-59.34065934065934|-114.28571428571429|-73.26007326007326]
315,2026-02-10 20:22:12,[-65.2014652014652|-136.26373626373626|-120.14652014652015|-136.996336996337|-178.02197802197801]
316,2026-02-10 20:22:12,[-189.01098901098902|-142.85714285714286|-128.2051282051282|-129.67032967032966|-220.51282051282053]
317,2026-02-10 20:22:12,[-182.41758241758242|-87.17948717948718|-131.86813186813185|-120.87912087912088|-119.41391941391942]
318,2026-02-10 20:22:12,[-157.50915750915752|-132.6007326007326|-190.47619047619048|-84.98168498168498|-182.41758241758242]
319,2026-02-10 20:22:12,[-182.41758241758242|-178.75457875457874|-216.11721611721612|-112.08791208791209|-235.16483516483515]
320,2026-02-10 20:22:12,[-176.55677655677655|-172.16117216117217|-189.01098901098902|-87.91208791208791|-195.6043956043956]
321,2026-02-10 20:22:12,[-126.00732600732601|-124.54212454212454|-214.65201465201466|-71.7948717948718|-169.96336996336996]
322,2026-02-10 20:22:12,[-147.25274725274724|-154.57875457875457|-277.65567765567766|-120.14652014652015|-149.45054945054946]
323,2026-02-10 20:22:13,[-214.65201465201466|-229.3040293040293|-182.41758241758242|-4.395604395604396|309.8901098901099]
324,2026-02-10 20:22:13,[670.3296703296703|407.3260073260073|-170.6959706959707|-365.56776556776555|-362.6373626373626]
325,2026-02-10 20:22:13,[-193.4065934065934|-157.50915750915752|-295.23809523809524|-241.02564102564102|-188.2783882783883]
326,2026-02-10 20:22:13,[-85.71428571428571|-182.41758241758242|-217.58241758241758|-110.62271062271063|-101.83150183150182]
327,2026-02-10 20:22:13,[-101.83150183150182|-158.24175824175825|-88.64468864468864|-66.66666666666667|-106.22710622710623]
328,2026-02-10 20:22:13,[-47.61904761904762|-16.117216117216117|-18.315018315018314|44.688644688644686|8.058608058608058]
329,2026-02-10 20:22:13,[104.76190476190476|40.29304029304029|69.59706959706959|37.362637362637365|-84.24908424908425]
330,2026-02-10 20:22:13,[-3.663003663003663|-96.7032967032967|-126.73992673992674|-103.2967032967033|-194.87179487179486]
331,2026-02-10 20:22:13,[-95.97069597069597|-134.06593406593407|-173.62637362637363|-172.8937728937729|-191.94139194139194]
332,2026-02-10 20:22:13,[-160.43956043956044|-124.54212454212454|-189.01098901098902|-115.75091575091575|-109.15750915750915]
333,2026-02-10 20:22:13,[-183.15018315018315|-79.85347985347985|-177.28937728937728|-182.41758241758242|-230.76923076923077]
334,2026-02-10 20:22:13,[-172.16117216117217|-135.53113553113553|-176.55677655677655|-180.95238095238096|-153.1135531135531]
335,2026-02-10 20:22:13,[-115.75091575091575|-224.9084249084249|-213.1868131868132|-205.86080586080587|-202.93040293040292]
336,2026-02-10 20:22:13,[-113.55311355311355|-32.967032967032964|-194.13919413919413|-136.996336996337|-84.24908424908425]
337,2026-02-10 20:22:13,[-101.0989010989011|-205.86080586080587|-267.3992673992674|-124.54212454212454|-182.41758241758242]
338,2026-02-10 20:22:13,[-200.0|-249.8168498168498|-277.65567765567766|-32.234432234432234|204.3956043956044]
339,2026-02-10 20:22:13,[706.2271062271062|619.047619047619|72.52747252747253|-341.3919413919414|-352.3809523809524]
340,2026-02-10 20:22:13,[-134.7985347985348|-62.27106227106227|-175.0915750915751|-146.5201465201465|-120.87912087912088]
341,2026-02-10 20:22:13,[-216.84981684981685|-194.13919413919413|-156.04395604395606|-82.78388278388279|-112.82051282051282]
342,2026-02-10 20:22:13,[-50.54945054945055|-52.014652014652015|-65.2014652014652|-59.34065934065934|-113.55311355311355]
343,2026-02-10 20:22:13,[-8.791208791208792|-47.61904761904762|-60.8058608058608|-5.86080586080586|41.75824175824176]
344,2026-02-10 20:22:13,[17.582417582417584|75.45787545787546|-32.234432234432234|55.67765567765568|-96.7032967032967]
345,2026-02-10 20:22:13,[-51.282051282051285|-97.43589743589743|-227.83882783882783|-98.9010989010989|-205.86080586080587]
346,2026-02-10 20:22:13,[-207.32600732600733|-192.67399267399267|-208.7912087912088|-250.54945054945054|-248.35164835164835]
347,2026-02-10 20:22:13,[-192.67399267399267|-149.45054945054946|-238.0952380952381|-219.04761904761904|-243.2234432234432]
348,2026-02-10 20:22:14,[-167.03296703296704|-255.67765567765568|-189.74358974358975|-126.73992673992674|-243.95604395604394]
349,2026-02-10 20:22:14,[-194.13919413919413|-108.42490842490842|-205.86080586080587|-194.13919413919413|-298.9010989010989]
350,2026-02-10 20:22:14,[-223.44322344322345|-169.23076923076923|-235.89743589743588|-213.1868131868132|-250.54945054945054]
351,2026-02-10 20:22:14,[-155.3113553113553|-106.22710622710623|-145.05494505494505|-160.43956043956044|-209.52380952380952]
352,2026-02-10 20:22:14,[-149.45054945054946|-167.76556776556777|-169.23076923076923|-173.62637362637363|-265.9340659340659]
353,2026-02-10 20:22:14,[-170.6959706959707|-207.32600732600733|-98.9010989010989|280.5860805860806|627.1062271062272]
354,2026-02-10 20:22:14,[814.6520146520146|224.9084249084249|-323.0769230769231|-261.53846153846155|-213.91941391941393]
355,2026-02-10 20:22:14,[-112.08791208791209|-47.61904761904762|-56.41025641025641|-76.92307692307692|-131.86813186813185]
356,2026-02-10 20:22:14,[6.593406593406593|-132.6007326007326|-43.223443223443226|-5.86080586080586|-101.83150183150182]
357,2026-02-10 20:22:14,[-117.94871794871794|6.593406593406593|37.362637362637365|-8.058608058608058|-95.23809523809524]
358,2026-02-10 20:22:14,[104.02930402930403|98.9010989010989|57.142857142857146|126.73992673992674|107.6923076923077]
359,2026-02-10 20:22:14,[30.036630036630036|160.43956043956044|62.27106227106227|57.142857142857146|-3.663003663003663]
360,2026-02-10 20:22:14,[-18.315018315018314|-40.29304029304029|-157.50915750915752|9.523809523809524|-109.89010989010988]
361,2026-02-10 20:22:14,[-73.99267399267399|-82.78388278388279|-215.3846153846154|-131.86813186813185|-156.7765567765568]
362,2026-02-10 20:22:14,[-200.0|-144.32234432234432|-110.62271062271063|-58.608058608058606|-161.9047619047619]
363,2026-02-10 20:22:14,[-170.6959706959707|-141.3919413919414|-118.68131868131869|-31.501831501831504|-94.50549450549451]
364,2026-02-10 20:22:14,[-141.3919413919414|-141.3919413919414|-82.78388278388279|-123.80952380952381|-180.95238095238096]
365,2026-02-10 20:22:14,[-94.50549450549451|-40.29304029304029|-145.78754578754578|-85.71428571428571|-76.92307692307692]
366,2026-02-10 20:22:14,[-98.9010989010989|-63.73626373626374|-75.45787545787546|-122.34432234432235|-242.49084249084248]
367,2026-02-10 20:22:14,[-137.72893772893772|-65.2014652014652|-154.57875457875457|-178.75457875457874|-177.28937728937728]
368,2026-02-10 20:22:14,[-168.4981684981685|179.48717948717947|676.1904761904761|874.7252747252747|124.54212454212454]
369,2026-02-10 20:22:14,[-263.7362637362637|-254.94505494505495|-225.64102564102564|-142.12454212454213|-239.56043956043956]
370,2026-02-10 20:22:14,[-125.27472527472527|-84.98168498168498|-95.23809523809524|-131.13553113553112|-153.1135531135531]
371,2026-02-10 20:22:14,[-79.12087912087912|-126.73992673992674|-106.22710622710623|42.49084249084249|-40.29304029304029]
372,2026-02-10 20:22:14,[-133.33333333333334|-19.78021978021978|62.27106227106227|6.593406593406593|-8.791208791208792]
373,2026-02-10 20:22:15,[52.014652014652015|88.64468864468864|80.58608058608058|78.3882783882784|27.106227106227106]
374,2026-02-10 20:22:15,[6.593406593406593|50.54945054945055|-50.54945054945055|22.71062271062271|-107.6923076923077]
375,2026-02-10 20:22:15,[-122.34432234432235|-115.75091575091575|-144.32234432234432|-153.1135531135531|-218.3150183150183]
376,2026-02-10 20:22:15,[-178.75457875457874|-201.46520146520146|-208.7912087912088|-181.6849816849817|-143.5897435897436]
377,2026-02-10 20:22:15,[-160.43956043956044|-220.51282051282053|-194.13919413919413|-107.6923076923077|-249.8168498168498]
378,2026-02-10 20:22:15,[-207.32600732600733|-226.37362637362637|-212.45421245421247|-161.17216117216117|-287.9120879120879]
379,2026-02-10 20:22:15,[-195.6043956043956|-160.43956043956044|-276.1904761904762|-235.89743589743588|-197.06959706959708]
380,2026-02-10 20:22:15,[-209.52380952380952|-213.1868131868132|-213.91941391941393|-175.0915750915751|-226.37362637362637]
381,2026-02-10 20:22:15,[-218.3150183150183|-268.13186813186815|-290.1098901098901|-246.8864468864469|-312.0879120879121]
382,2026-02-10 20:22:15,[-302.56410256410254|-260.0732600732601|-238.0952380952381|13.186813186813186|296.7032967032967]
383,2026-02-10 20:22:15,[341.3919413919414|-76.19047619047619|-557.5091575091575|-501.83150183150184|-400.73260073260076]
384,2026-02-10 20:22:15,[-347.98534798534797|-333.3333333333333|-352.3809523809524|-286.4468864468864|-389.7435897435897]
385,2026-02-10 20:22:15,[-240.2930402930403|-238.0952380952381|-246.8864468864469|-287.9120879120879|-216.11721611721612]
386,2026-02-10 20:22:15,[-125.27472527472527|-180.95238095238096|-243.2234432234432|-115.01831501831502|-100.36630036630036]
387,2026-02-10 20:22:15,[-164.10256410256412|-97.43589743589743|-67.3992673992674|-30.036630036630036|-32.234432234432234]
388,2026-02-10 20:22:15,[-28.571428571428573|53.47985347985348|-96.7032967032967|-60.8058608058608|-100.36630036630036]
389,2026-02-10 20:22:15,[-101.0989010989011|-165.56776556776558|-153.1135531135531|-158.24175824175825|-166.3003663003663]
390,2026-02-10 20:22:15,[-178.02197802197801|-161.17216117216117|-248.35164835164835|-167.03296703296704|-227.83882783882783]
391,2026-02-10 20:22:15,[-172.8937728937729|-88.64468864468864|-166.3003663003663|-216.84981684981685|-183.88278388278388]
392,2026-02-10 20:22:15,[-156.04395604395606|-115.75091575091575|-147.25274725274724|-118.68131868131869|-180.95238095238096]
393,2026-02-10 20:22:15,[-84.98168498168498|-109.15750915750915|-213.1868131868132|-88.64468864468864|-218.3150183150183]
394,2026-02-10 20:22:15,[-252.74725274725276|-156.04395604395606|-130.4029304029304|-155.3113553113553|-41.02564102564103]
395,2026-02-10 20:22:15,[-49.08424908424909|-150.1831501831502|-209.52380952380952|-115.75091575091575|-178.02197802197801]
396,2026-02-10 20:22:15,[-160.43956043956044|-110.62271062271063|-157.50915750915752|-208.05860805860806|-160.43956043956044]
397,2026-02-10 20:22:15,[126.00732600732601|482.7838827838828|553.1135531135532|220.51282051282053|-241.02564102564102]
398,2026-02-10 20:22:16,[-260.0732600732601|-358.97435897435895|-267.3992673992674|-142.85714285714286|-164.83516483516485]
399,2026-02-10 20:22:16,[-164.83516483516485|-120.14652014652015|-161.9047619047619|-110.62271062271063|-112.08791208791209]
400,2026-02-10 20:22:16,[-123.80952380952381|-112.08791208791209|-87.17948717948718|-38.827838827838825|-207.32600732600733]
401,2026-02-10 20:22:16,[-124.54212454212454|-43.223443223443226|-63.73626373626374|37.362637362637365|-30.036630036630036]
402,2026-02-10 20:22:16,[-53.47985347985348|25.641025641025642|-60.8058608058608|-32.234432234432234|5.128205128205129]
403,2026-02-10 20:22:16,[-54.94505494505494|-131.86813186813185|-101.83150183150182|-166.3003663003663|-213.1868131868132]
404,2026-02-10 20:22:16,[-143.5897435897436|-194.87179487179486|-383.8827838827839|-300.3663003663004|-383.1501831501831]
405,2026-02-10 20:22:16,[-271.06227106227107|-267.3992673992674|-358.97435897435895|-242.49084249084248|-314.2857142857143]
406,2026-02-10 20:22:16,[-336.2637362637363|-270.3296703296703|-219.04761904761904|-158.97435897435898|-345.05494505494505]
407,2026-02-10 20:22:16,[-258.6080586080586|-265.9340659340659|-242.49084249084248|-213.1868131868132|-287.9120879120879]
408,2026-02-10 20:22:16,[-158.97435897435898|-195.6043956043956|-283.5164835164835|-206.5934065934066|-112.82051282051282]
409,2026-02-10 20:22:16,[-224.9084249084249|-154.57875457875457|-73.99267399267399|-194.13919413919413|-333.3333333333333]
410,2026-02-10 20:22:16,[-299.6336996336996|-219.04761904761904|-293.7728937728938|-188.2783882783883|-368.4981684981685]
411,2026-02-10 20:22:16,[-415.38461538461536|-242.49084249084248|-95.97069597069597|390.4761904761905|323.0769230769231]
412,2026-02-10 20:22:16,[-179.48717948717947|-657.1428571428571|-658.6080586080586|-506.2271062271062|-536.2637362637363]
413,2026-02-10 20:22:16,[-527.4725274725274|-589.7435897435897|-639.5604395604396|-532.6007326007326|-619.047619047619]
414,2026-02-10 20:22:16,[-641.025641025641|-549.4505494505495|-618.3150183150183|-582.4175824175824|-688.6446886446887]
415,2026-02-10 20:22:16,[-645.4212454212454|-615.3846153846154|-663.003663003663|-556.0439560439561|-497.43589743589746]
416,2026-02-10 20:22:16,[-589.7435897435897|-522.3443223443223|-504.76190476190476|-446.15384615384613|-544.3223443223443]
417,2026-02-10 20:22:16,[-384.61538461538464|-438.0952380952381|-613.1868131868132|-476.9230769230769|-473.992673992674]
418,2026-02-10 20:22:16,[-463.003663003663|-517.9487179487179|-619.047619047619|-452.01465201465203|-488.64468864468864]
419,2026-02-10 20:22:16,[-540.6593406593406|-501.83150183150184|-509.8901098901099|-367.032967032967|-450.54945054945057]
420,2026-02-10 20:22:16,[-452.01465201465203|-402.9304029304029|-302.56410256410254|-271.06227106227107|-340.65934065934067]
421,2026-02-10 20:22:16,[-243.95604395604394|-195.6043956043956|-301.0989010989011|-253.4798534798535|-270.3296703296703]
422,2026-02-10 20:22:16,[-189.01098901098902|-161.9047619047619|-142.85714285714286|-142.85714285714286|-126.00732600732601]
423,2026-02-10 20:22:16,[-172.8937728937729|-83.51648351648352|-153.1135531135531|-16.84981684981685|-3.663003663003663]
424,2026-02-10 20:22:17,[125.27472527472527|18.315018315018314|25.641025641025642|22.71062271062271|-4.395604395604396]
425,2026-02-10 20:22:17,[81.31868131868131|30.76923076923077|19.78021978021978|75.45787545787546|63.73626373626374]
426,2026-02-10 20:22:17,[416.1172161172161|983.8827838827839|1187.5457875457876|491.57509157509156|-134.7985347985348]
427,2026-02-10 20:22:17,[-28.571428571428573|76.92307692307692|210.25641025641025|241.02564102564102|88.64468864468864]
428,2026-02-10 20:22:17,[161.9047619047619|182.41758241758242|299.6336996336996|312.8205128205128|225.64102564102564]
429,2026-02-10 20:22:17,[262.27106227106225|312.8205128205128|265.9340659340659|323.0769230769231|304.02930402930406]
430,2026-02-10 20:22:17,[343.5897435897436|369.2307692307692|226.37362637362637|371.42857142857144|312.8205128205128]
431,2026-02-10 20:22:17,[320.1465201465202|353.84615384615387|267.3992673992674|345.05494505494505|254.21245421245422]
432,2026-02-10 20:22:17,[264.46886446886447|345.05494505494505|277.65567765567766|219.04761904761904|173.62637362637363]
433,2026-02-10 20:22:17,[201.46520146520146|107.6923076923077|63.00366300366301|97.43589743589743|90.10989010989012]
434,2026-02-10 20:22:17,[34.43223443223443|91.57509157509158|111.35531135531136|43.223443223443226|73.99267399267399]
435,2026-02-10 20:22:17,[138.46153846153845|173.62637362637363|163.36996336996336|180.95238095238096|-46.88644688644688]
436,2026-02-10 20:22:17,[65.2014652014652|207.32600732600733|134.7985347985348|-15.384615384615385|86.44688644688645]
437,2026-02-10 20:22:17,[91.57509157509158|124.54212454212454|99.63369963369964|44.688644688644686|-9.523809523809524]
438,2026-02-10 20:22:17,[-65.2014652014652|97.43589743589743|97.43589743589743|93.04029304029304|78.3882783882784]
439,2026-02-10 20:22:17,[93.04029304029304|13.91941391941392|-2.197802197802198|22.71062271062271|-21.978021978021978]
440,2026-02-10 20:22:17,[-53.47985347985348|-17.582417582417584|-93.77289377289377|-24.175824175824175|41.02564102564103]
441,2026-02-10 20:22:17,[353.84615384615387|916.4835164835165|809.5238095238095|341.3919413919414|-226.37362637362637]
442,2026-02-10 20:22:17,[-167.76556776556777|-112.08791208791209|-85.71428571428571|-63.00366300366301|-50.54945054945055]
443,2026-02-10 20:22:17,[-28.571428571428573|-47.61904761904762|-66.66666666666667|-56.41025641025641|-62.27106227106227]
444,2026-02-10 20:22:17,[16.117216117216117|76.19047619047619|-65.2014652014652|69.59706959706959|-5.128205128205129]
445,2026-02-10 20:22:17,[5.86080586080586|93.04029304029304|64.46886446886447|107.6923076923077|39.56043956043956]
446,2026-02-10 20:22:17,[49.08424908424909|180.95238095238096|72.52747252747253|90.10989010989012|126.73992673992674]
447,2026-02-10 20:22:17,[103.2967032967033|92.3076923076923|-49.08424908424909|-48.35164835164835|-52.747252747252745]
448,2026-02-10 20:22:18,[-53.47985347985348|-134.7985347985348|-164.10256410256412|-156.04395604395606|-169.23076923076923]
449,2026-02-10 20:22:18,[-188.2783882783883|-169.23076923076923|-207.32600732600733|-61.53846153846154|-131.13553113553112]
450,2026-02-10 20:22:18,[-158.97435897435898|-136.996336996337|-115.75091575091575|-75.45787545787546|-144.32234432234432]
451,2026-02-10 20:22:18,[-120.87912087912088|-70.32967032967034|-175.0915750915751|-193.4065934065934|-115.01831501831502]
452,2026-02-10 20:22:18,[-158.97435897435898|-124.54212454212454|-158.24175824175825|-217.58241758241758|-144.32234432234432]
453,2026-02-10 20:22:18,[-103.2967032967033|-84.98168498168498|-191.2087912087912|-103.2967032967033|-243.95604395604394]
454,2026-02-10 20:22:18,[-188.2783882783883|-73.26007326007326|-142.12454212454213|-160.43956043956044|-130.4029304029304]
455,2026-02-10 20:22:18,[-195.6043956043956|-160.43956043956044|-251.28205128205127|-131.13553113553112|-216.84981684981685]
456,2026-02-10 20:22:18,[-267.3992673992674|-176.55677655677655|-65.2014652014652|314.2857142857143|513.5531135531136]
457,2026-02-10 20:22:18,[342.12454212454213|-40.29304029304029|-379.4871794871795|-462.27106227106225|-405.86080586080584]
458,2026-02-10 20:22:18,[-201.46520146520146|-106.22710622710623|-284.98168498168496|-161.17216117216117|-251.28205128205127]
459,2026-02-10 20:22:18,[-169.23076923076923|-204.3956043956044|-241.02564102564102|-180.95238095238096|-68.13186813186813]
460,2026-02-10 20:22:18,[-101.83150183150182|-112.08791208791209|-182.41758241758242|-146.5201465201465|-127.47252747252747]
461,2026-02-10 20:22:18,[-100.36630036630036|-39.56043956043956|-153.84615384615384|-25.641025641025642|-73.26007326007326]
462,2026-02-10 20:22:18,[-35.8974358974359|-9.523809523809524|-167.03296703296704|-95.97069597069597|-170.6959706959707]
463,2026-02-10 20:22:18,[-239.56043956043956|-238.82783882783883|-270.3296703296703|-318.68131868131866|-345.05494505494505]
464,2026-02-10 20:22:18,[-313.5531135531136|-264.46886446886447|-329.6703296703297|-314.2857142857143|-342.12454212454213]
465,2026-02-10 20:22:18,[-309.8901098901099|-314.2857142857143|-341.3919413919414|-248.35164835164835|-413.9194139194139]
466,2026-02-10 20:22:18,[-334.7985347985348|-267.3992673992674|-308.42490842490844|-265.9340659340659|-355.3113553113553]
467,2026-02-10 20:22:18,[-306.959706959707|-263.003663003663|-334.7985347985348|-274.72527472527474|-308.42490842490844]
468,2026-02-10 20:22:18,[-314.2857142857143|-312.8205128205128|-365.56776556776555|-260.0732600732601|-205.12820512820514]
469,2026-02-10 20:22:18,[-213.1868131868132|-250.54945054945054|-335.53113553113553|-178.02197802197801|-161.9047619047619]
470,2026-02-10 20:22:18,[-188.2783882783883|-197.06959706959708|-115.01831501831502|-136.26373626373626|-236.63003663003664]
471,2026-02-10 20:22:18,[-216.11721611721612|-98.16849816849818|-123.07692307692308|-172.16117216117217|-106.95970695970696]
472,2026-02-10 20:22:18,[169.23076923076923|541.3919413919414|701.0989010989011|319.4139194139194|-251.28205128205127]
473,2026-02-10 20:22:19,[-200.0|-168.4981684981685|-167.03296703296704|-21.245421245421245|-52.014652014652015]
474,2026-02-10 20:22:19,[-144.32234432234432|-145.78754578754578|-150.1831501831502|-41.75824175824176|-76.92307692307692]
475,2026-02-10 20:22:19,[-123.80952380952381|-12.454212454212454|-95.23809523809524|-97.43589743589743|-28.571428571428573]
476,2026-02-10 20:22:19,[-29.304029304029303|-53.47985347985348|8.058608058608058|5.86080586080586|-52.014652014652015]
477,2026-02-10 20:22:19,[-5.86080586080586|68.86446886446886|-2.93040293040293|21.245421245421245|76.92307692307692]
478,2026-02-10 20:22:19,[-52.014652014652015|-28.571428571428573|-125.27472527472527|-148.71794871794873|-158.24175824175825]
479,2026-02-10 20:22:19,[-120.87912087912088|-183.15018315018315|-243.95604395604394|-158.24175824175825|-158.97435897435898]
480,2026-02-10 20:22:19,[-182.41758241758242|-60.8058608058608|-107.6923076923077|-52.014652014652015|-11.72161172161172]
481,2026-02-10 20:22:19,[-63.73626373626374|-51.282051282051285|-17.582417582417584|43.223443223443226|-33.6996336996337]
482,2026-02-10 20:22:19,[8.058608058608058|37.362637362637365|-42.49084249084249|29.304029304029303|-20.512820512820515]
483,2026-02-10 20:22:19,[-159.7069597069597|-101.0989010989011|-152.38095238095238|-61.53846153846154|-167.76556776556777]
484,2026-02-10 20:22:19,[-49.08424908424909|22.71062271062271|-85.71428571428571|-103.2967032967033|-112.08791208791209]
485,2026-02-10 20:22:19,[-19.78021978021978|-66.66666666666667|-59.34065934065934|27.83882783882784|-63.73626373626374]
486,2026-02-10 20:22:19,[-90.10989010989012|30.036630036630036|-27.83882783882784|-39.56043956043956|-63.73626373626374]
487,2026-02-10 20:22:19,[-87.17948717948718|-87.17948717948718|-109.89010989010988|-73.26007326007326|210.25641025641025]
488,2026-02-10 20:22:19,[778.021978021978|674.7252747252747|93.04029304029304|-196.33699633699635|-246.8864468864469]
489,2026-02-10 20:22:19,[-132.6007326007326|-101.83150183150182|-84.24908424908425|-40.29304029304029|-56.41025641025641]
490,2026-02-10 20:22:19,[-106.22710622710623|-83.51648351648352|-166.3003663003663|-107.6923076923077|-26.373626373626372]
491,2026-02-10 20:22:19,[-21.245421245421245|-35.8974358974359|-98.16849816849818|-72.52747252747253|-79.85347985347985]
492,2026-02-10 20:22:19,[-36.63003663003663|78.3882783882784|-63.73626373626374|-12.454212454212454|-3.663003663003663]
493,2026-02-10 20:22:19,[74.72527472527473|50.54945054945055|-52.014652014652015|-30.036630036630036|-78.3882783882784]
494,2026-02-10 20:22:19,[-53.47985347985348|-62.27106227106227|-167.76556776556777|-107.6923076923077|-203.66300366300365]
495,2026-02-10 20:22:19,[-109.15750915750915|-79.85347985347985|-224.9084249084249|-123.80952380952381|-216.11721611721612]
496,2026-02-10 20:22:19,[-136.996336996337|-182.41758241758242|-188.2783882783883|-75.45787545787546|-157.50915750915752]
497,2026-02-10 20:22:19,[-150.91575091575092|-50.54945054945055|-102.56410256410257|-109.15750915750915|-158.97435897435898]
498,2026-02-10 20:22:20,[-156.7765567765568|-76.92307692307692|-106.22710622710623|-87.17948717948718|-126.73992673992674]
499,2026-02-10 20:22:20,[-97.43589743589743|-114.28571428571429|-132.6007326007326|-142.85714285714286|-126.73992673992674]
500,2026-02-10 20:22:20,[-131.13553113553112|-160.43956043956044|-156.04395604395606|-142.85714285714286|-167.76556776556777]
501,2026-02-10 20:22:20,[-128.2051282051282|-121.6117216117216|-200.73260073260073|-84.98168498168498|-97.43589743589743]
502,2026-02-10 20:22:20,[-156.7765567765568|-135.53113553113553|-220.51282051282053|-227.83882783882783|-216.84981684981685]
503,2026-02-10 20:22:20,[-88.64468864468864|-106.22710622710623|-296.7032967032967|-136.26373626373626|197.8021978021978]
504,2026-02-10 20:22:20,[676.9230769230769|674.7252747252747|-5.128205128205129|-425.64102564102564|-418.31501831501834]
505,2026-02-10 20:22:20,[-312.8205128205128|-258.6080586080586|-153.84615384615384|-188.2783882783883|-180.21978021978023]
506,2026-02-10 20:22:20,[-296.7032967032967|-106.22710622710623|-122.34432234432235|-25.641025641025642|-142.12454212454213]
507,2026-02-10 20:22:20,[-167.03296703296704|-55.67765567765568|-52.014652014652015|-65.2014652014652|-111.35531135531136]
508,2026-02-10 20:22:20,[-52.014652014652015|-27.106227106227106|19.78021978021978|-16.84981684981685|-113.55311355311355]
509,2026-02-10 20:22:20,[114.28571428571429|-41.02564102564103|-49.08424908424909|13.186813186813186|-101.83150183150182]
510,2026-02-10 20:22:20,[-71.06227106227107|-73.99267399267399|-178.02197802197801|-100.36630036630036|-220.51282051282053]
511,2026-02-10 20:22:20,[-289.3772893772894|-201.46520146520146|-204.3956043956044|-308.42490842490844|-342.12454212454213]
512,2026-02-10 20:22:20,[-109.15750915750915|-158.24175824175825|-227.1062271062271|-218.3150183150183|-188.2783882783883]
513,2026-02-10 20:22:20,[-202.1978021978022|-161.17216117216117|-273.2600732600733|-285.7142857142857|-239.56043956043956]
514,2026-02-10 20:22:20,[-189.01098901098902|-164.10256410256412|-264.46886446886447|-287.9120879120879|-249.08424908424908]
515,2026-02-10 20:22:20,[-180.95238095238096|-217.58241758241758|-290.1098901098901|-192.67399267399267|-296.7032967032967]
516,2026-02-10 20:22:20,[-238.82783882783883|-229.3040293040293|-276.1904761904762|-220.51282051282053|-238.0952380952381]
517,2026-02-10 20:22:20,[-126.73992673992674|-156.04395604395606|-252.74725274725276|-287.9120879120879|-265.9340659340659]
518,2026-02-10 20:22:20,[-220.51282051282053|-246.8864468864469|-272.5274725274725|-195.6043956043956|-305.4945054945055]
519,2026-02-10 20:22:20,[-324.54212454212455|-95.23809523809524|224.17582417582418|593.4065934065934|360.43956043956047]
520,2026-02-10 20:22:20,[-365.56776556776555|-447.6190476190476|-295.97069597069594|-318.68131868131866|-310.6227106227106]
521,2026-02-10 20:22:20,[-208.7912087912088|-156.04395604395606|-243.2234432234432|-147.98534798534797|-79.85347985347985]
522,2026-02-10 20:22:20,[-64.46886446886447|-180.95238095238096|-147.98534798534797|-37.362637362637365|-75.45787545787546]
523,2026-02-10 20:22:20,[-88.64468864468864|-100.36630036630036|-95.97069597069597|-30.036630036630036|-47.61904761904762]
524,2026-02-10 20:22:21,[126.73992673992674|4.395604395604396|-52.014652014652015|19.78021978021978|44.688644688644686]
525,2026-02-10 20:22:21,[-15.384615384615385|52.014652014652015|-53.47985347985348|-35.8974358974359|-89.37728937728937]
526,2026-02-10 20:22:21,[-156.04395604395606|-193.4065934065934|-161.17216117216117|-145.78754578754578|-202.93040293040292]
527,2026-02-10 20:22:21,[-208.7912087912088|-191.2087912087912|-206.5934065934066|-24.175824175824175|-164.83516483516485]
528,2026-02-10 20:22:21,[-203.66300366300365|-202.93040293040292|-205.86080586080587|-9.523809523809524|-121.6117216117216]
529,2026-02-10 20:22:21,[-161.17216117216117|-131.13553113553112|-183.88278388278388|-143.5897435897436|-113.55311355311355]
530,2026-02-10 20:22:21,[-208.7912087912088|-103.2967032967033|-144.32234432234432|-54.94505494505494|-156.7765567765568]
531,2026-02-10 20:22:21,[-173.62637362637363|-117.94871794871794|-148.71794871794873|-156.7765567765568|-115.01831501831502]
532,2026-02-10 20:22:21,[-68.13186813186813|37.362637362637365|-166.3003663003663|-148.71794871794873|-136.996336996337]
533,2026-02-10 20:22:21,[-54.94505494505494|59.34065934065934|8.791208791208792|-19.047619047619047|-118.68131868131869]
534,2026-02-10 20:22:21,[-19.047619047619047|-61.53846153846154|-59.34065934065934|16.84981684981685|-144.32234432234432]
535,2026-02-10 20:22:21,[5.128205128205129|472.5274725274725|673.2600732600732|580.952380952381|-3.663003663003663]
536,2026-02-10 20:22:21,[-170.6959706959707|-145.05494505494505|-164.10256410256412|-28.571428571428573|-124.54212454212454]
537,2026-02-10 20:22:21,[-40.29304029304029|-56.41025641025641|-110.62271062271063|-16.117216117216117|-48.35164835164835]
538,2026-02-10 20:22:21,[-53.47985347985348|10.989010989010989|-3.663003663003663|-30.036630036630036|-24.175824175824175]
539,2026-02-10 20:22:21,[-37.362637362637365|21.978021978021978|-40.29304029304029|88.64468864468864|46.15384615384615]
540,2026-02-10 20:22:21,[56.41025641025641|68.13186813186813|78.3882783882784|107.6923076923077|-41.75824175824176]
541,2026-02-10 20:22:21,[21.978021978021978|13.91941391941392|-109.15750915750915|-71.06227106227107|-227.1062271062271]
542,2026-02-10 20:22:21,[-134.7985347985348|-52.014652014652015|-178.02197802197801|-202.1978021978022|-265.9340659340659]
543,2026-02-10 20:22:21,[-227.1062271062271|-169.96336996336996|-265.9340659340659|-267.3992673992674|-258.6080586080586]
544,2026-02-10 20:22:21,[-275.45787545787545|-167.76556776556777|-237.36263736263737|-217.58241758241758|-144.32234432234432]
545,2026-02-10 20:22:21,[-208.7912087912088|-229.3040293040293|-286.4468864468864|-171.42857142857142|-247.61904761904762]
546,2026-02-10 20:22:21,[-252.74725274725276|-183.15018315018315|-235.16483516483515|-150.1831501831502|-204.3956043956044]
547,2026-02-10 20:22:21,[-188.2783882783883|-172.8937728937729|-189.74358974358975|-276.1904761904762|-213.91941391941393]
548,2026-02-10 20:22:22,[-211.7216117216117|-123.07692307692308|-202.1978021978022|-160.43956043956044|-202.93040293040292]
549,2026-02-10 20:22:22,[-205.12820512820514|-144.32234432234432|-147.98534798534797|-189.74358974358975|-243.2234432234432]
550,2026-02-10 20:22:22,[-270.3296703296703|-156.04395604395606|-197.06959706959708|-270.3296703296703|-254.94505494505495]
551,2026-02-10 20:22:22,[-200.0|148.71794871794873|534.7985347985348|589.7435897435897|72.52747252747253]
552,2026-02-10 20:22:22,[-308.42490842490844|-178.02197802197801|-148.71794871794873|-43.956043956043956|-157.50915750915752]
553,2026-02-10 20:22:22,[-84.24908424908425|67.3992673992674|-8.791208791208792|33.6996336996337|84.24908424908425]
554,2026-02-10 20:22:22,[111.35531135531136|197.06959706959708|138.46153846153845|230.76923076923077|273.992673992674]
555,2026-02-10 20:22:22,[397.8021978021978|453.4798534798535|425.64102564102564|600.0|643.9560439560439]
556,2026-02-10 20:22:22,[841.7582417582418|979.4871794871794|904.7619047619048|1457.142857142857|957.5091575091575]
557,2026-02-10 20:22:22,[960.4395604395604|1057.142857142857|1013.1868131868132|1049.8168498168498|1045.4212454212454]
558,2026-02-10 20:22:22,[904.7619047619048|755.3113553113553|698.1684981684982|710.6227106227107|528.2051282051282]
559,2026-02-10 20:22:22,[510.6227106227106|650.5494505494505|533.3333333333334|547.2527472527472|466.6666666666667]
560,2026-02-10 20:22:22,[494.5054945054945|675.4578754578755|676.1904761904761|754.5787545787546|761.1721611721612]
561,2026-02-10 20:22:22,[780.2197802197802|890.1098901098901|586.080586080586|830.0366300366301|874.7252747252747]
562,2026-02-10 20:22:22,[884.981684981685|1171.4285714285713|1233.6996336996338|1499.6336996336997|1499.6336996336997]
563,2026-02-10 20:22:22,[1499.6336996336997|1499.6336996336997|1499.6336996336997|1499.6336996336997|1499.6336996336997]
564,2026-02-10 20:22:22,[1499.6336996336997|1499.6336996336997|1499.6336996336997|1241.025641025641|819.047619047619]
565,2026-02-10 20:22:22,[665.934065934066|655.6776556776557|453.4798534798535|371.42857142857144|299.6336996336996]
566,2026-02-10 20:22:22,[290.1098901098901|88.64468864468864|-13.91941391941392|131.13553113553112|-100.36630036630036]
567,2026-02-10 20:22:22,[-72.52747252747253|90.84249084249085|425.64102564102564|676.1904761904761|90.84249084249085]
568,2026-02-10 20:22:22,[-471.06227106227107|-485.7142857142857|-369.96336996337|-307.6923076923077|-263.003663003663]
569,2026-02-10 20:22:22,[-298.16849816849816|-381.68498168498166|-341.3919413919414|-286.4468864468864|-323.8095238095238]
570,2026-02-10 20:22:22,[-191.2087912087912|-56.41025641025641|-123.80952380952381|-27.106227106227106|-63.73626373626374]
571,2026-02-10 20:22:22,[-145.78754578754578|8.791208791208792|-35.8974358974359|34.43223443223443|78.3882783882784]
572,2026-02-10 20:22:22,[98.9010989010989|76.19047619047619|34.43223443223443|192.67399267399267|205.12820512820514]
573,2026-02-10 20:22:22,[279.1208791208791|427.1062271062271|608.0586080586081|869.5970695970695|900.3663003663004]
574,2026-02-10 20:22:23,[840.2930402930403|802.9304029304029|605.8608058608058|522.3443223443223|323.0769230769231]
575,2026-02-10 20:22:23,[268.86446886446885|338.46153846153845|202.93040293040292|205.12820512820514|216.11721611721612]
576,2026-02-10 20:22:23,[195.6043956043956|271.06227106227107|87.17948717948718|98.9010989010989|-49.08424908424909]
577,2026-02-10 20:22:23,[-76.92307692307692|-37.362637362637365|-251.28205128205127|-265.9340659340659|-200.0]
578,2026-02-10 20:22:23,[-144.32234432234432|-400.73260073260076|-515.7509157509157|-410.989010989011|-481.31868131868134]
579,2026-02-10 20:22:23,[-626.3736263736264|-671.0622710622711|-828.5714285714286|-904.7619047619048|-1143.5897435897436]
580,2026-02-10 20:22:23,[-1214.6520146520147|-1446.886446886447|-1495.2380952380952|-1500.3663003663003|-1500.3663003663003]
581,2026-02-10 20:22:23,[-1500.3663003663003|-1500.3663003663003|-1500.3663003663003|-1500.3663003663003|-1500.3663003663003]
582,2026-02-10 20:22:23,[-1500.3663003663003|-1500.3663003663003|-1500.3663003663003|-1500.3663003663003|-1500.3663003663003]
583,2026-02-10 20:22:23,[-1500.3663003663003|-1500.3663003663003|-1500.3663003663003|-1500.3663003663003|-1500.3663003663003]
584,2026-02-10 20:22:23,[-1500.3663003663003|-1500.3663003663003|-1500.3663003663003|-1500.3663003663003|-1500.3663003663003]
585,2026-02-10 20:22:23,[-1500.3663003663003|-1500.3663003663003|-1500.3663003663003|-1500.3663003663003|-939.1941391941392]
586,2026-02-10 20:22:23,[80.58608058608058|-73.26007326007326|-192.67399267399267|-94.50549450549451|-160.43956043956044]
587,2026-02-10 20:22:23,[20.512820512820515|-204.3956043956044|-142.85714285714286|-66.66666666666667|-182.41758241758242]
588,2026-02-10 20:22:23,[84.24908424908425|-311.35531135531136|-56.41025641025641|-112.08791208791209|-194.13919413919413]
589,2026-02-10 20:22:23,[217.58241758241758|-474.72527472527474|227.83882783882783|-213.91941391941393|-242.49084249084248]
590,2026-02-10 20:22:23,[358.24175824175825|-648.3516483516484|102.56410256410257|-219.04761904761904|-267.3992673992674]
591,2026-02-10 20:22:23,[510.6227106227106|-828.5714285714286|205.86080586080587|-277.65567765567766|-303.2967032967033]
592,2026-02-10 20:22:23,[688.6446886446887|-1014.6520146520146|304.02930402930406|-369.96336996337|-345.05494505494505]
593,2026-02-10 20:22:23,[853.4798534798534|-1180.952380952381|1499.6336996336997|1499.6336996336997|-64.46886446886447]
594,2026-02-10 20:22:23,[747.985347985348|-1290.8424908424909|442.4908424908425|-380.95238095238096|-396.3369963369963]
595,2026-02-10 20:22:23,[1029.3040293040292|-1301.8315018315018|443.95604395604397|-438.0952380952381|-393.4065934065934]
596,2026-02-10 20:22:23,[1030.7692307692307|-1296.7032967032967|440.2930402930403|-382.4175824175824|-392.6739926739927]
597,2026-02-10 20:22:23,[1007.3260073260074|-1271.062271062271|421.24542124542126|-704.0293040293041|-449.8168498168498]
598,2026-02-10 20:22:24,[1022.7106227106227|-1223.4432234432234|405.12820512820514|-416.8498168498169|-369.96336996337]
599,2026-02-10 20:22:24,[936.996336996337|-1208.0586080586081|394.87179487179486|-362.6373626373626|-380.2197802197802]
600,2026-02-10 20:22:24,[936.996336996337|-1205.128205128205|394.87179487179486|-362.6373626373626|-383.1501831501831]
601,2026-02-10 20:22:24,[954.5787545787546|-1212.4542124542124|403.6630036630037|-421.97802197802196|-547.2527472527472]
602,2026-02-10 20:22:24,[990.4761904761905|-1221.2454212454213|412.45421245421244|-378.75457875457874|-396.3369963369963]
603,2026-02-10 20:22:24,[1000.7326007326008|-1246.1538461538462|416.8498168498169|-371.42857142857144|-400.73260073260076]
604,2026-02-10 20:22:24,[1010.989010989011|-1247.6190476190477|424.1758241758242|-424.90842490842493|-402.9304029304029]
605,2026-02-10 20:22:24,[1022.7106227106227|-1249.084249084249|421.24542124542126|-377.2893772893773|-3.663003663003663]
606,2026-02-10 20:22:24,[1199.2673992673992|-1285.7142857142858|405.86080586080584|-367.032967032967|-404.3956043956044]
607,2026-02-10 20:22:24,[1017.5824175824176|-1227.838827838828|409.5238095238095|-415.38461538461536|-402.1978021978022]
608,2026-02-10 20:22:24,[1004.3956043956044|-1215.3846153846155|402.1978021978022|-359.7069597069597|-405.12820512820514]
609,2026-02-10 20:22:24,[999.2673992673992|-1209.5238095238096|400.73260073260076|-356.04395604395603|-406.5934065934066]
610,2026-02-10 20:22:24,[1499.6336996336997|1083.5164835164835|670.3296703296703|-617.5824175824176|-405.12820512820514]
611,2026-02-10 20:22:24,[1026.3736263736264|-1199.2673992673992|389.7435897435897|-355.3113553113553|-408.05860805860806]
612,2026-02-10 20:22:24,[1010.2564102564103|-1202.930402930403|393.4065934065934|-356.04395604395603|-413.9194139194139]
613,2026-02-10 20:22:24,[1007.3260073260074|-1187.5457875457876|393.4065934065934|-405.12820512820514|-408.7912087912088]
614,2026-02-10 20:22:24,[966.3003663003662|-1279.1208791208792|404.3956043956044|-342.12454212454213|-422.7106227106227]
615,2026-02-10 20:22:24,[1013.1868131868132|-1195.6043956043957|394.13919413919416|-353.1135531135531|-422.7106227106227]
