Packet_Number,Timestamp,Data
1,2026-02-10 20:22:00,[112314|0]
2,2026-02-10 20:22:00,[112308|0]
3,2026-02-10 20:22:00,[112359|0]
4,2026-02-10 20:22:00,[112335|0]
5,2026-02-10 20:22:00,[112297|0]
6,2026-02-10 20:22:00,[112325|0]
7,2026-02-10 20:22:00,[112295|0]
8,2026-02-10 20:22:00,[112307|0]
9,2026-02-10 20:22:00,[112488|0]
10,2026-02-10 20:22:00,[112631|0]
11,2026-02-10 20:22:00,[112524|0]
12,2026-02-10 20:22:00,[112593|0]
13,2026-02-10 20:22:00,[112532|0]
14,2026-02-10 20:22:00,[112556|0]
15,2026-02-10 20:22:00,[112707|0]
16,2026-02-10 20:22:00,[112769|0]
17,2026-02-10 20:22:00,[112767|0]
18,2026-02-10 20:22:00,[112805|0]
19,2026-02-10 20:22:00,[112874|0]
20,2026-02-10 20:22:00,[112805|0]
21,2026-02-10 20:22:00,[112729|0]
22,2026-02-10 20:22:00,[112735|0]
23,2026-02-10 20:22:01,[112754|0]
24,2026-02-10 20:22:01,[112819|0]
25,2026-02-10 20:22:01,[112824|0]
26,2026-02-10 20:22:01,[112912|0]
27,2026-02-10 20:22:01,[112975|0]
28,2026-02-10 20:22:01,[112974|0]
29,2026-02-10 20:22:01,[112907|0]
30,2026-02-10 20:22:01,[112870|0]
31,2026-02-10 20:22:01,[113000|0]
32,2026-02-10 20:22:01,[113383|0]
33,2026-02-10 20:22:01,[113482|0]
34,2026-02-10 20:22:01,[113151|0]
35,2026-02-10 20:22:01,[112917|0]
36,2026-02-10 20:22:01,[112790|0]
37,2026-02-10 20:22:01,[112850|0]
38,2026-02-10 20:22:01,[113032|0]
39,2026-02-10 20:22:01,[113176|0]
40,2026-02-10 20:22:01,[113147|0]
41,2026-02-10 20:22:01,[113004|0]
42,2026-02-10 20:22:01,[112968|0]
43,2026-02-10 20:22:01,[113016|0]
44,2026-02-10 20:22:01,[113120|0]
45,2026-02-10 20:22:01,[113265|0]
46,2026-02-10 20:22:01,[113345|0]
47,2026-02-10 20:22:01,[113426|0]
48,2026-02-10 20:22:01,[113458|0]
49,2026-02-10 20:22:02,[113439|0]
50,2026-02-10 20:22:02,[113454|0]
51,2026-02-10 20:22:02,[113476|0]
52,2026-02-10 20:22:02,[113475|0]
53,2026-02-10 20:22:02,[113485|0]
54,2026-02-10 20:22:02,[113520|0]
55,2026-02-10 20:22:02,[113521|0]
56,2026-02-10 20:22:02,[113476|0]
57,2026-02-10 20:22:02,[113483|0]
58,2026-02-10 20:22:02,[113450|0]
59,2026-02-10 20:22:02,[113446|0]
60,2026-02-10 20:22:02,[113452|0]
61,2026-02-10 20:22:02,[113438|0]
62,2026-02-10 20:22:02,[113418|0]
63,2026-02-10 20:22:02,[113383|0]
64,2026-02-10 20:22:02,[113307|0]
65,2026-02-10 20:22:02,[113299|0]
66,2026-02-10 20:22:02,[113299|0]
67,2026-02-10 20:22:02,[113331|0]
68,2026-02-10 20:22:02,[113352|0]
69,2026-02-10 20:22:02,[113379|0]
70,2026-02-10 20:22:02,[113383|0]
71,2026-02-10 20:22:02,[113347|0]
72,2026-02-10 20:22:02,[113361|0]
73,2026-02-10 20:22:03,[113365|0]
74,2026-02-10 20:22:03,[113356|0]
75,2026-02-10 20:22:03,[113340|0]
76,2026-02-10 20:22:03,[113343|0]
77,2026-02-10 20:22:03,[113332|0]
78,2026-02-10 20:22:03,[113363|0]
79,2026-02-10 20:22:03,[113361|0]
80,2026-02-10 20:22:03,[113339|0]
81,2026-02-10 20:22:03,[113297|0]
82,2026-02-10 20:22:03,[113324|0]
83,2026-02-10 20:22:03,[113299|0]
84,2026-02-10 20:22:03,[113322|0]
85,2026-02-10 20:22:03,[113310|0]
86,2026-02-10 20:22:03,[113307|0]
87,2026-02-10 20:22:03,[113302|0]
88,2026-02-10 20:22:03,[113298|0]
89,2026-02-10 20:22:03,[113259|0]
90,2026-02-10 20:22:03,[113282|0]
91,2026-02-10 20:22:03,[113283|0]
92,2026-02-10 20:22:03,[113280|0]
93,2026-02-10 20:22:03,[113281|0]
94,2026-02-10 20:22:03,[113270|0]
95,2026-02-10 20:22:03,[113213|0]
96,2026-02-10 20:22:03,[113216|0]
97,2026-02-10 20:22:03,[113227|0]
98,2026-02-10 20:22:04,[113262|0]
99,2026-02-10 20:22:04,[113261|0]
100,2026-02-10 20:22:04,[113276|0]
101,2026-02-10 20:22:04,[113272|0]
102,2026-02-10 20:22:04,[113273|0]
103,2026-02-10 20:22:04,[113286|0]
104,2026-02-10 20:22:04,[113286|0]
105,2026-02-10 20:22:04,[113287|0]
106,2026-02-10 20:22:04,[113282|0]
107,2026-02-10 20:22:04,[113257|0]
108,2026-02-10 20:22:04,[113265|0]
109,2026-02-10 20:22:04,[113267|0]
110,2026-02-10 20:22:04,[113259|0]
111,2026-02-10 20:22:04,[113234|0]
112,2026-02-10 20:22:04,[113243|0]
113,2026-02-10 20:22:04,[113215|0]
114,2026-02-10 20:22:04,[113262|0]
115,2026-02-10 20:22:04,[113257|0]
116,2026-02-10 20:22:04,[113270|0]
117,2026-02-10 20:22:04,[113258|0]
118,2026-02-10 20:22:04,[113261|0]
119,2026-02-10 20:22:04,[113226|0]
120,2026-02-10 20:22:04,[113265|0]
121,2026-02-10 20:22:04,[113264|0]
122,2026-02-10 20:22:04,[113263|0]
123,2026-02-10 20:22:04,[113262|0]
124,2026-02-10 20:22:05,[113245|0]
125,2026-02-10 20:22:05,[113197|0]
126,2026-02-10 20:22:05,[113195|0]
127,2026-02-10 20:22:05,[113220|0]
128,2026-02-10 20:22:05,[113247|0]
129,2026-02-10 20:22:05,[113250|0]
130,2026-02-10 20:22:05,[113257|0]
131,2026-02-10 20:22:05,[113225|0]
132,2026-02-10 20:22:05,[113222|0]
133,2026-02-10 20:22:05,[113209|0]
134,2026-02-10 20:22:05,[113206|0]
135,2026-02-10 20:22:05,[113222|0]
136,2026-02-10 20:22:05,[113223|0]
137,2026-02-10 20:22:05,[113210|0]
138,2026-02-10 20:22:05,[113225|0]
139,2026-02-10 20:22:05,[113233|0]
140,2026-02-10 20:22:05,[113221|0]
141,2026-02-10 20:22:05,[113214|0]
142,2026-02-10 20:22:05,[113195|0]
143,2026-02-10 20:22:05,[113189|0]
144,2026-02-10 20:22:05,[113223|0]
145,2026-02-10 20:22:05,[113224|0]
146,2026-02-10 20:22:05,[113215|0]
147,2026-02-10 20:22:05,[113222|0]
148,2026-02-10 20:22:05,[113212|0]
149,2026-02-10 20:22:06,[113199|0]
150,2026-02-10 20:22:06,[113214|0]
151,2026-02-10 20:22:06,[113210|0]
152,2026-02-10 20:22:06,[113201|0]
153,2026-02-10 20:22:06,[113206|0]
154,2026-02-10 20:22:06,[113184|0]
155,2026-02-10 20:22:06,[113189|0]
156,2026-02-10 20:22:06,[113196|0]
157,2026-02-10 20:22:06,[113190|0]
158,2026-02-10 20:22:06,[113201|0]
159,2026-02-10 20:22:06,[113212|0]
160,2026-02-10 20:22:06,[113212|0]
161,2026-02-10 20:22:06,[113212|0]
162,2026-02-10 20:22:06,[113215|0]
163,2026-02-10 20:22:06,[113217|0]
164,2026-02-10 20:22:06,[113228|0]
165,2026-02-10 20:22:06,[113235|0]
166,2026-02-10 20:22:06,[113215|0]
167,2026-02-10 20:22:06,[113232|0]
168,2026-02-10 20:22:06,[113243|0]
169,2026-02-10 20:22:06,[113250|0]
170,2026-02-10 20:22:06,[113238|0]
171,2026-02-10 20:22:06,[113221|0]
172,2026-02-10 20:22:06,[113205|0]
173,2026-02-10 20:22:07,[113249|0]
174,2026-02-10 20:22:07,[113281|0]
175,2026-02-10 20:22:07,[113296|0]
176,2026-02-10 20:22:07,[113283|0]
177,2026-02-10 20:22:07,[113284|0]
178,2026-02-10 20:22:07,[113261|0]
179,2026-02-10 20:22:07,[113264|0]
180,2026-02-10 20:22:07,[113272|0]
181,2026-02-10 20:22:07,[113272|0]
182,2026-02-10 20:22:07,[113266|0]
183,2026-02-10 20:22:07,[113267|0]
184,2026-02-10 20:22:07,[113285|0]
185,2026-02-10 20:22:07,[113241|0]
186,2026-02-10 20:22:07,[113223|0]
187,2026-02-10 20:22:07,[113205|0]
188,2026-02-10 20:22:07,[113228|0]
189,2026-02-10 20:22:07,[113260|0]
190,2026-02-10 20:22:07,[113264|0]
191,2026-02-10 20:22:07,[113255|0]
192,2026-02-10 20:22:07,[113267|0]
193,2026-02-10 20:22:07,[113258|0]
194,2026-02-10 20:22:07,[113257|0]
195,2026-02-10 20:22:07,[113260|0]
196,2026-02-10 20:22:07,[113261|0]
197,2026-02-10 20:22:07,[113211|0]
198,2026-02-10 20:22:07,[113253|0]
199,2026-02-10 20:22:08,[113246|0]
200,2026-02-10 20:22:08,[113245|0]
201,2026-02-10 20:22:08,[113200|0]
202,2026-02-10 20:22:08,[113199|0]
203,2026-02-10 20:22:08,[113184|0]
204,2026-02-10 20:22:08,[113238|0]
205,2026-02-10 20:22:08,[113243|0]
206,2026-02-10 20:22:08,[113248|0]
207,2026-02-10 20:22:08,[113251|0]
208,2026-02-10 20:22:08,[113236|0]
209,2026-02-10 20:22:08,[113207|0]
210,2026-02-10 20:22:08,[113236|0]
211,2026-02-10 20:22:08,[113242|0]
212,2026-02-10 20:22:08,[113246|0]
213,2026-02-10 20:22:08,[113259|0]
214,2026-02-10 20:22:08,[113241|0]
215,2026-02-10 20:22:08,[113192|0]
216,2026-02-10 20:22:08,[113187|0]
217,2026-02-10 20:22:08,[113211|0]
218,2026-02-10 20:22:08,[113239|0]
219,2026-02-10 20:22:08,[113246|0]
220,2026-02-10 20:22:08,[113238|0]
221,2026-02-10 20:22:08,[113205|0]
222,2026-02-10 20:22:08,[113215|0]
223,2026-02-10 20:22:09,[113213|0]
224,2026-02-10 20:22:09,[113223|0]
225,2026-02-10 20:22:09,[113219|0]
226,2026-02-10 20:22:09,[113226|0]
227,2026-02-10 20:22:09,[113198|0]
228,2026-02-10 20:22:09,[113215|0]
229,2026-02-10 20:22:09,[113202|0]
230,2026-02-10 20:22:09,[113165|0]
231,2026-02-10 20:22:09,[113183|0]
232,2026-02-10 20:22:09,[113229|0]
233,2026-02-10 20:22:09,[113233|0]
234,2026-02-10 20:22:09,[113271|0]
235,2026-02-10 20:22:09,[113277|0]
236,2026-02-10 20:22:09,[113265|0]
237,2026-02-10 20:22:09,[113263|0]
238,2026-02-10 20:22:09,[113264|0]
239,2026-02-10 20:22:09,[113219|0]
240,2026-02-10 20:22:09,[113248|0]
241,2026-02-10 20:22:09,[113261|0]
242,2026-02-10 20:22:09,[113291|0]
243,2026-02-10 20:22:09,[113277|0]
244,2026-02-10 20:22:09,[113222|0]
245,2026-02-10 20:22:09,[113149|0]
246,2026-02-10 20:22:09,[113193|0]
247,2026-02-10 20:22:09,[113234|0]
248,2026-02-10 20:22:10,[113271|0]
249,2026-02-10 20:22:10,[113263|0]
250,2026-02-10 20:22:10,[113295|0]
251,2026-02-10 20:22:10,[113267|0]
252,2026-02-10 20:22:10,[113295|0]
253,2026-02-10 20:22:10,[113313|0]
254,2026-02-10 20:22:10,[113311|0]
255,2026-02-10 20:22:10,[113326|0]
256,2026-02-10 20:22:10,[113309|0]
257,2026-02-10 20:22:10,[113314|0]
258,2026-02-10 20:22:10,[113343|0]
259,2026-02-10 20:22:10,[113300|0]
260,2026-02-10 20:22:10,[113209|0]
261,2026-02-10 20:22:10,[113200|0]
262,2026-02-10 20:22:10,[113232|0]
263,2026-02-10 20:22:10,[113245|0]
264,2026-02-10 20:22:10,[113286|0]
265,2026-02-10 20:22:10,[113267|0]
266,2026-02-10 20:22:10,[113203|0]
267,2026-02-10 20:22:10,[113148|0]
268,2026-02-10 20:22:10,[113103|0]
269,2026-02-10 20:22:10,[113072|0]
270,2026-02-10 20:22:10,[113058|0]
271,2026-02-10 20:22:10,[113126|0]
272,2026-02-10 20:22:10,[113190|0]
273,2026-02-10 20:22:10,[113194|0]
274,2026-02-10 20:22:11,[113178|0]
275,2026-02-10 20:22:11,[113238|0]
276,2026-02-10 20:22:11,[113290|0]
277,2026-02-10 20:22:11,[113304|0]
278,2026-02-10 20:22:11,[113263|0]
279,2026-02-10 20:22:11,[113148|0]
280,2026-02-10 20:22:11,[112965|0]
281,2026-02-10 20:22:11,[113008|0]
282,2026-02-10 20:22:11,[113104|0]
283,2026-02-10 20:22:11,[113163|0]
284,2026-02-10 20:22:11,[113189|0]
285,2026-02-10 20:22:11,[113191|0]
286,2026-02-10 20:22:11,[113165|0]
287,2026-02-10 20:22:11,[113185|0]
288,2026-02-10 20:22:11,[113228|0]
289,2026-02-10 20:22:11,[113264|0]
290,2026-02-10 20:22:11,[113277|0]
291,2026-02-10 20:22:11,[113290|0]
292,2026-02-10 20:22:11,[113272|0]
293,2026-02-10 20:22:11,[113277|0]
294,2026-02-10 20:22:11,[113264|0]
295,2026-02-10 20:22:11,[113264|0]
296,2026-02-10 20:22:11,[113264|0]
297,2026-02-10 20:22:11,[113259|0]
298,2026-02-10 20:22:12,[113228|0]
299,2026-02-10 20:22:12,[113130|0]
300,2026-02-10 20:22:12,[113078|0]
301,2026-02-10 20:22:12,[113116|0]
302,2026-02-10 20:22:12,[113151|0]
303,2026-02-10 20:22:12,[113162|0]
304,2026-02-10 20:22:12,[113171|0]
305,2026-02-10 20:22:12,[113137|0]
306,2026-02-10 20:22:12,[113148|0]
307,2026-02-10 20:22:12,[113151|0]
308,2026-02-10 20:22:12,[113154|0]
309,2026-02-10 20:22:12,[113160|0]
310,2026-02-10 20:22:12,[113179|0]
311,2026-02-10 20:22:12,[113142|0]
312,2026-02-10 20:22:12,[113166|0]
313,2026-02-10 20:22:12,[113169|0]
314,2026-02-10 20:22:12,[113189|0]
315,2026-02-10 20:22:12,[113169|0]
316,2026-02-10 20:22:12,[113135|0]
317,2026-02-10 20:22:12,[113088|0]
318,2026-02-10 20:22:12,[113154|0]
319,2026-02-10 20:22:12,[113196|0]
320,2026-02-10 20:22:12,[113206|0]
321,2026-02-10 20:22:12,[113227|0]
322,2026-02-10 20:22:12,[113232|0]
323,2026-02-10 20:22:13,[113180|0]
324,2026-02-10 20:22:13,[113205|0]
325,2026-02-10 20:22:13,[113213|0]
326,2026-02-10 20:22:13,[113213|0]
327,2026-02-10 20:22:13,[113223|0]
328,2026-02-10 20:22:13,[113256|0]
329,2026-02-10 20:22:13,[113208|0]
330,2026-02-10 20:22:13,[113207|0]
331,2026-02-10 20:22:13,[113150|0]
332,2026-02-10 20:22:13,[113070|0]
333,2026-02-10 20:22:13,[113084|0]
334,2026-02-10 20:22:13,[113147|0]
335,2026-02-10 20:22:13,[113156|0]
336,2026-02-10 20:22:13,[113207|0]
337,2026-02-10 20:22:13,[113217|0]
338,2026-02-10 20:22:13,[113219|0]
339,2026-02-10 20:22:13,[113230|0]
340,2026-02-10 20:22:13,[113230|0]
341,2026-02-10 20:22:13,[113209|0]
342,2026-02-10 20:22:13,[113241|0]
343,2026-02-10 20:22:13,[113247|0]
344,2026-02-10 20:22:13,[113251|0]
345,2026-02-10 20:22:13,[113268|0]
346,2026-02-10 20:22:13,[113230|0]
347,2026-02-10 20:22:13,[113147|0]
348,2026-02-10 20:22:14,[113210|0]
349,2026-02-10 20:22:14,[113242|0]
350,2026-02-10 20:22:14,[113255|0]
351,2026-02-10 20:22:14,[113247|0]
352,2026-02-10 20:22:14,[113229|0]
353,2026-02-10 20:22:14,[113204|0]
354,2026-02-10 20:22:14,[113236|0]
355,2026-02-10 20:22:14,[113252|0]
356,2026-02-10 20:22:14,[113232|0]
357,2026-02-10 20:22:14,[113259|0]
358,2026-02-10 20:22:14,[113244|0]
359,2026-02-10 20:22:14,[113233|0]
360,2026-02-10 20:22:14,[113228|0]
361,2026-02-10 20:22:14,[113151|0]
362,2026-02-10 20:22:14,[113132|0]
363,2026-02-10 20:22:14,[113183|0]
364,2026-02-10 20:22:14,[113226|0]
365,2026-02-10 20:22:14,[113216|0]
366,2026-02-10 20:22:14,[113241|0]
367,2026-02-10 20:22:14,[113228|0]
368,2026-02-10 20:22:14,[113234|0]
369,2026-02-10 20:22:14,[113237|0]
370,2026-02-10 20:22:14,[113221|0]
371,2026-02-10 20:22:14,[113213|0]
372,2026-02-10 20:22:14,[113257|0]
373,2026-02-10 20:22:15,[113259|0]
374,2026-02-10 20:22:15,[113255|0]
375,2026-02-10 20:22:15,[113203|0]
376,2026-02-10 20:22:15,[113124|0]
377,2026-02-10 20:22:15,[113140|0]
378,2026-02-10 20:22:15,[113185|0]
379,2026-02-10 20:22:15,[113210|0]
380,2026-02-10 20:22:15,[113241|0]
381,2026-02-10 20:22:15,[113244|0]
382,2026-02-10 20:22:15,[113233|0]
383,2026-02-10 20:22:15,[113206|0]
384,2026-02-10 20:22:15,[113250|0]
385,2026-02-10 20:22:15,[113242|0]
386,2026-02-10 20:22:15,[113281|0]
387,2026-02-10 20:22:15,[113277|0]
388,2026-02-10 20:22:15,[113256|0]
389,2026-02-10 20:22:15,[113219|0]
390,2026-02-10 20:22:15,[113166|0]
391,2026-02-10 20:22:15,[113164|0]
392,2026-02-10 20:22:15,[113215|0]
393,2026-02-10 20:22:15,[113249|0]
394,2026-02-10 20:22:15,[113266|0]
395,2026-02-10 20:22:15,[113274|0]
396,2026-02-10 20:22:15,[113266|0]
397,2026-02-10 20:22:15,[113251|0]
398,2026-02-10 20:22:16,[113253|0]
399,2026-02-10 20:22:16,[113250|0]
400,2026-02-10 20:22:16,[113238|0]
401,2026-02-10 20:22:16,[113262|0]
402,2026-02-10 20:22:16,[113275|0]
403,2026-02-10 20:22:16,[113245|0]
404,2026-02-10 20:22:16,[113134|0]
405,2026-02-10 20:22:16,[113102|0]
406,2026-02-10 20:22:16,[113129|0]
407,2026-02-10 20:22:16,[113174|0]
408,2026-02-10 20:22:16,[113202|0]
409,2026-02-10 20:22:16,[113228|0]
410,2026-02-10 20:22:16,[113295|0]
411,2026-02-10 20:22:16,[113295|0]
412,2026-02-10 20:22:16,[113340|0]
413,2026-02-10 20:22:16,[113390|0]
414,2026-02-10 20:22:16,[113476|0]
415,2026-02-10 20:22:16,[113559|0]
416,2026-02-10 20:22:16,[113623|0]
417,2026-02-10 20:22:16,[113629|0]
418,2026-02-10 20:22:16,[113627|0]
419,2026-02-10 20:22:16,[113421|0]
420,2026-02-10 20:22:16,[113186|0]
421,2026-02-10 20:22:16,[113309|0]
422,2026-02-10 20:22:16,[113463|0]
423,2026-02-10 20:22:16,[113532|0]
424,2026-02-10 20:22:17,[113556|0]
425,2026-02-10 20:22:17,[113525|0]
426,2026-02-10 20:22:17,[113534|0]
427,2026-02-10 20:22:17,[113537|0]
428,2026-02-10 20:22:17,[113554|0]
429,2026-02-10 20:22:17,[113550|0]
430,2026-02-10 20:22:17,[113546|0]
431,2026-02-10 20:22:17,[113516|0]
432,2026-02-10 20:22:17,[113541|0]
433,2026-02-10 20:22:17,[113460|0]
434,2026-02-10 20:22:17,[113260|0]
435,2026-02-10 20:22:17,[113266|0]
436,2026-02-10 20:22:17,[113372|0]
437,2026-02-10 20:22:17,[113416|0]
438,2026-02-10 20:22:17,[113470|0]
439,2026-02-10 20:22:17,[113465|0]
440,2026-02-10 20:22:17,[113453|0]
441,2026-02-10 20:22:17,[113449|0]
442,2026-02-10 20:22:17,[113452|0]
443,2026-02-10 20:22:17,[113450|0]
444,2026-02-10 20:22:17,[113472|0]
445,2026-02-10 20:22:17,[113483|0]
446,2026-02-10 20:22:17,[113486|0]
447,2026-02-10 20:22:17,[113481|0]
448,2026-02-10 20:22:18,[113412|0]
449,2026-02-10 20:22:18,[113225|0]
450,2026-02-10 20:22:18,[113280|0]
451,2026-02-10 20:22:18,[113384|0]
452,2026-02-10 20:22:18,[113421|0]
453,2026-02-10 20:22:18,[113440|0]
454,2026-02-10 20:22:18,[113436|0]
455,2026-02-10 20:22:18,[113385|0]
456,2026-02-10 20:22:18,[113413|0]
457,2026-02-10 20:22:18,[113421|0]
458,2026-02-10 20:22:18,[113427|0]
459,2026-02-10 20:22:18,[113439|0]
460,2026-02-10 20:22:18,[113452|0]
461,2026-02-10 20:22:18,[113421|0]
462,2026-02-10 20:22:18,[113449|0]
463,2026-02-10 20:22:18,[113404|0]
464,2026-02-10 20:22:18,[113278|0]
465,2026-02-10 20:22:18,[113226|0]
466,2026-02-10 20:22:18,[113302|0]
467,2026-02-10 20:22:18,[113321|0]
468,2026-02-10 20:22:18,[113406|0]
469,2026-02-10 20:22:18,[113413|0]
470,2026-02-10 20:22:18,[113403|0]
471,2026-02-10 20:22:18,[113387|0]
472,2026-02-10 20:22:18,[113397|0]
473,2026-02-10 20:22:19,[113369|0]
474,2026-02-10 20:22:19,[113408|0]
475,2026-02-10 20:22:19,[113405|0]
476,2026-02-10 20:22:19,[113415|0]
477,2026-02-10 20:22:19,[113427|0]
478,2026-02-10 20:22:19,[113403|0]
479,2026-02-10 20:22:19,[113260|0]
480,2026-02-10 20:22:19,[113158|0]
481,2026-02-10 20:22:19,[113198|0]
482,2026-02-10 20:22:19,[113299|0]
483,2026-02-10 20:22:19,[113367|0]
484,2026-02-10 20:22:19,[113368|0]
485,2026-02-10 20:22:19,[113360|0]
486,2026-02-10 20:22:19,[113385|0]
487,2026-02-10 20:22:19,[113399|0]
488,2026-02-10 20:22:19,[113421|0]
489,2026-02-10 20:22:19,[113440|0]
490,2026-02-10 20:22:19,[113441|0]
491,2026-02-10 20:22:19,[113441|0]
492,2026-02-10 20:22:19,[113457|0]
493,2026-02-10 20:22:19,[113456|0]
494,2026-02-10 20:22:19,[113399|0]
495,2026-02-10 20:22:19,[113186|0]
496,2026-02-10 20:22:19,[113142|0]
497,2026-02-10 20:22:19,[113241|0]
498,2026-02-10 20:22:20,[113340|0]
499,2026-02-10 20:22:20,[113379|0]
500,2026-02-10 20:22:20,[113401|0]
501,2026-02-10 20:22:20,[113397|0]
502,2026-02-10 20:22:20,[113373|0]
503,2026-02-10 20:22:20,[113393|0]
504,2026-02-10 20:22:20,[113417|0]
505,2026-02-10 20:22:20,[113451|0]
506,2026-02-10 20:22:20,[113449|0]
507,2026-02-10 20:22:20,[113446|0]
508,2026-02-10 20:22:20,[113444|0]
509,2026-02-10 20:22:20,[113453|0]
510,2026-02-10 20:22:20,[113407|0]
511,2026-02-10 20:22:20,[113249|0]
512,2026-02-10 20:22:20,[113223|0]
513,2026-02-10 20:22:20,[113325|0]
514,2026-02-10 20:22:20,[113378|0]
515,2026-02-10 20:22:20,[113428|0]
516,2026-02-10 20:22:20,[113429|0]
517,2026-02-10 20:22:20,[113411|0]
518,2026-02-10 20:22:20,[113404|0]
519,2026-02-10 20:22:20,[113426|0]
520,2026-02-10 20:22:20,[113425|0]
521,2026-02-10 20:22:20,[113444|0]
522,2026-02-10 20:22:20,[113448|0]
523,2026-02-10 20:22:20,[113473|0]
524,2026-02-10 20:22:21,[113472|0]
525,2026-02-10 20:22:21,[113435|0]
526,2026-02-10 20:22:21,[113435|0]
527,2026-02-10 20:22:21,[113276|0]
528,2026-02-10 20:22:21,[113181|0]
529,2026-02-10 20:22:21,[113259|0]
530,2026-02-10 20:22:21,[113351|0]
531,2026-02-10 20:22:21,[113392|0]
532,2026-02-10 20:22:21,[113419|0]
533,2026-02-10 20:22:21,[113378|0]
534,2026-02-10 20:22:21,[113393|0]
535,2026-02-10 20:22:21,[113403|0]
536,2026-02-10 20:22:21,[113420|0]
537,2026-02-10 20:22:21,[113432|0]
538,2026-02-10 20:22:21,[113439|0]
539,2026-02-10 20:22:21,[113422|0]
540,2026-02-10 20:22:21,[113459|0]
541,2026-02-10 20:22:21,[113451|0]
542,2026-02-10 20:22:21,[113365|0]
543,2026-02-10 20:22:21,[113127|0]
544,2026-02-10 20:22:21,[113028|0]
545,2026-02-10 20:22:21,[113079|0]
546,2026-02-10 20:22:21,[113225|0]
547,2026-02-10 20:22:21,[113262|0]
548,2026-02-10 20:22:22,[113276|0]
549,2026-02-10 20:22:22,[113227|0]
550,2026-02-10 20:22:22,[113168|0]
551,2026-02-10 20:22:22,[113082|0]
552,2026-02-10 20:22:22,[113028|0]
553,2026-02-10 20:22:22,[112977|0]
554,2026-02-10 20:22:22,[113023|0]
555,2026-02-10 20:22:22,[113036|0]
556,2026-02-10 20:22:22,[113038|0]
557,2026-02-10 20:22:22,[112985|0]
558,2026-02-10 20:22:22,[112540|0]
559,2026-02-10 20:22:22,[111386|0]
560,2026-02-10 20:22:22,[110948|0]
561,2026-02-10 20:22:22,[110894|0]
562,2026-02-10 20:22:22,[110994|0]
563,2026-02-10 20:22:22,[111065|0]
564,2026-02-10 20:22:22,[111113|0]
565,2026-02-10 20:22:22,[111036|0]
566,2026-02-10 20:22:22,[110800|0]
567,2026-02-10 20:22:22,[110671|0]
568,2026-02-10 20:22:22,[110593|0]
569,2026-02-10 20:22:22,[110524|0]
570,2026-02-10 20:22:22,[110618|0]
571,2026-02-10 20:22:22,[110672|0]
572,2026-02-10 20:22:22,[110682|0]
573,2026-02-10 20:22:22,[110745|0]
574,2026-02-10 20:22:23,[110714|0]
575,2026-02-10 20:22:23,[110796|0]
576,2026-02-10 20:22:23,[111138|0]
577,2026-02-10 20:22:23,[111835|0]
578,2026-02-10 20:22:23,[112325|0]
579,2026-02-10 20:22:23,[112530|0]
580,2026-02-10 20:22:23,[112604|0]
581,2026-02-10 20:22:23,[112625|0]
582,2026-02-10 20:22:23,[112764|0]
583,2026-02-10 20:22:23,[112882|0]
584,2026-02-10 20:22:23,[113100|0]
585,2026-02-10 20:22:23,[113390|0]
586,2026-02-10 20:22:23,[113506|0]
587,2026-02-10 20:22:23,[113566|0]
588,2026-02-10 20:22:23,[113693|0]
589,2026-02-10 20:22:23,[113877|0]
590,2026-02-10 20:22:23,[113627|0]
591,2026-02-10 20:22:23,[113525|0]
592,2026-02-10 20:22:23,[113497|0]
593,2026-02-10 20:22:23,[113678|0]
594,2026-02-10 20:22:23,[114018|0]
595,2026-02-10 20:22:23,[114309|0]
596,2026-02-10 20:22:23,[114324|0]
597,2026-02-10 20:22:23,[114182|0]
598,2026-02-10 20:22:24,[113952|0]
599,2026-02-10 20:22:24,[113756|0]
600,2026-02-10 20:22:24,[113666|0]
601,2026-02-10 20:22:24,[113606|0]
602,2026-02-10 20:22:24,[113684|0]
603,2026-02-10 20:22:24,[113808|0]
604,2026-02-10 20:22:24,[113918|0]
605,2026-02-10 20:22:24,[113910|0]
606,2026-02-10 20:22:24,[113956|0]
607,2026-02-10 20:22:24,[113982|0]
608,2026-02-10 20:22:24,[113938|0]
609,2026-02-10 20:22:24,[113947|0]
610,2026-02-10 20:22:24,[113916|0]
611,2026-02-10 20:22:24,[113893|0]
612,2026-02-10 20:22:24,[113933|0]
613,2026-02-10 20:22:24,[113965|0]
614,2026-02-10 20:22:24,[113997|0]
615,2026-02-10 20:22:24,[113980|0]
