Packet_Number,Timestamp,Data
1,2026-02-26 22:17:12,[108460|0]
2,2026-02-26 22:17:12,[108436|0]
3,2026-02-26 22:17:12,[108476|0]
4,2026-02-26 22:17:12,[108473|0]
5,2026-02-26 22:17:12,[108515|0]
6,2026-02-26 22:17:12,[108516|0]
7,2026-02-26 22:17:12,[108528|0]
8,2026-02-26 22:17:12,[108523|0]
9,2026-02-26 22:17:12,[108566|0]
10,2026-02-26 22:17:12,[108576|0]
11,2026-02-26 22:17:12,[108524|0]
12,2026-02-26 22:17:12,[108380|0]
13,2026-02-26 22:17:12,[108331|0]
14,2026-02-26 22:17:12,[108347|0]
15,2026-02-26 22:17:12,[108424|0]
16,2026-02-26 22:17:12,[108433|0]
17,2026-02-26 22:17:12,[108458|0]
18,2026-02-26 22:17:12,[108434|0]
19,2026-02-26 22:17:12,[108425|0]
20,2026-02-26 22:17:12,[108372|0]
21,2026-02-26 22:17:12,[108416|0]
22,2026-02-26 22:17:13,[108447|0]
23,2026-02-26 22:17:13,[108469|0]
24,2026-02-26 22:17:13,[108492|0]
25,2026-02-26 22:17:13,[108498|0]
26,2026-02-26 22:17:13,[108481|0]
27,2026-02-26 22:17:13,[108521|0]
28,2026-02-26 22:17:13,[108520|0]
29,2026-02-26 22:17:13,[108532|0]
30,2026-02-26 22:17:13,[108554|0]
31,2026-02-26 22:17:13,[108584|0]
32,2026-02-26 22:17:13,[108549|0]
33,2026-02-26 22:17:13,[108442|0]
34,2026-02-26 22:17:13,[108333|0]
35,2026-02-26 22:17:13,[108362|0]
36,2026-02-26 22:17:13,[108389|0]
37,2026-02-26 22:17:13,[108424|0]
38,2026-02-26 22:17:13,[108406|0]
39,2026-02-26 22:17:13,[108435|0]
40,2026-02-26 22:17:13,[108430|0]
41,2026-02-26 22:17:13,[108420|0]
42,2026-02-26 22:17:13,[108428|0]
43,2026-02-26 22:17:13,[108448|0]
44,2026-02-26 22:17:13,[108455|0]
45,2026-02-26 22:17:13,[108487|0]
46,2026-02-26 22:17:13,[108505|0]
47,2026-02-26 22:17:14,[108529|0]
48,2026-02-26 22:17:14,[108524|0]
49,2026-02-26 22:17:14,[108522|0]
50,2026-02-26 22:17:14,[108517|0]
51,2026-02-26 22:17:14,[108562|0]
52,2026-02-26 22:17:14,[108579|0]
53,2026-02-26 22:17:14,[108586|0]
54,2026-02-26 22:17:14,[108442|0]
55,2026-02-26 22:17:14,[108348|0]
56,2026-02-26 22:17:14,[108333|0]
57,2026-02-26 22:17:14,[108399|0]
58,2026-02-26 22:17:14,[108429|0]
59,2026-02-26 22:17:14,[108434|0]
60,2026-02-26 22:17:14,[108441|0]
61,2026-02-26 22:17:14,[108413|0]
62,2026-02-26 22:17:14,[108388|0]
63,2026-02-26 22:17:14,[108417|0]
64,2026-02-26 22:17:14,[108437|0]
65,2026-02-26 22:17:14,[108476|0]
66,2026-02-26 22:17:14,[108482|0]
67,2026-02-26 22:17:14,[108481|0]
68,2026-02-26 22:17:14,[108483|0]
69,2026-02-26 22:17:14,[108487|0]
70,2026-02-26 22:17:14,[108491|0]
71,2026-02-26 22:17:14,[108509|0]
72,2026-02-26 22:17:14,[108523|0]
73,2026-02-26 22:17:15,[108497|0]
74,2026-02-26 22:17:15,[108366|0]
75,2026-02-26 22:17:15,[108303|0]
76,2026-02-26 22:17:15,[108309|0]
77,2026-02-26 22:17:15,[108367|0]
78,2026-02-26 22:17:15,[108384|0]
79,2026-02-26 22:17:15,[108378|0]
80,2026-02-26 22:17:15,[108382|0]
81,2026-02-26 22:17:15,[108367|0]
82,2026-02-26 22:17:15,[108366|0]
83,2026-02-26 22:17:15,[108376|0]
84,2026-02-26 22:17:15,[108396|0]
85,2026-02-26 22:17:15,[108394|0]
86,2026-02-26 22:17:15,[108417|0]
87,2026-02-26 22:17:15,[108436|0]
88,2026-02-26 22:17:15,[108436|0]
89,2026-02-26 22:17:15,[108432|0]
90,2026-02-26 22:17:15,[108443|0]
91,2026-02-26 22:17:15,[108455|0]
92,2026-02-26 22:17:15,[108435|0]
93,2026-02-26 22:17:15,[108322|0]
94,2026-02-26 22:17:15,[108226|0]
95,2026-02-26 22:17:15,[108248|0]
96,2026-02-26 22:17:15,[108278|0]
97,2026-02-26 22:17:15,[108296|0]
98,2026-02-26 22:17:16,[108292|0]
99,2026-02-26 22:17:16,[108320|0]
100,2026-02-26 22:17:16,[108296|0]
101,2026-02-26 22:17:16,[108285|0]
102,2026-02-26 22:17:16,[108299|0]
103,2026-02-26 22:17:16,[108317|0]
104,2026-02-26 22:17:16,[108324|0]
105,2026-02-26 22:17:16,[108359|0]
106,2026-02-26 22:17:16,[108374|0]
107,2026-02-26 22:17:16,[108378|0]
108,2026-02-26 22:17:16,[108380|0]
109,2026-02-26 22:17:16,[108382|0]
110,2026-02-26 22:17:16,[108385|0]
111,2026-02-26 22:17:16,[108424|0]
112,2026-02-26 22:17:16,[108385|0]
113,2026-02-26 22:17:16,[108242|0]
114,2026-02-26 22:17:16,[108174|0]
115,2026-02-26 22:17:16,[108193|0]
116,2026-02-26 22:17:16,[108195|0]
117,2026-02-26 22:17:16,[108225|0]
118,2026-02-26 22:17:16,[108229|0]
119,2026-02-26 22:17:16,[108233|0]
120,2026-02-26 22:17:16,[108228|0]
121,2026-02-26 22:17:16,[108217|0]
122,2026-02-26 22:17:17,[108201|0]
123,2026-02-26 22:17:17,[108244|0]
124,2026-02-26 22:17:17,[108262|0]
125,2026-02-26 22:17:17,[108297|0]
126,2026-02-26 22:17:17,[108290|0]
127,2026-02-26 22:17:17,[108303|0]
128,2026-02-26 22:17:17,[108280|0]
129,2026-02-26 22:17:17,[108312|0]
130,2026-02-26 22:17:17,[108326|0]
131,2026-02-26 22:17:17,[108347|0]
132,2026-02-26 22:17:17,[108355|0]
133,2026-02-26 22:17:17,[108248|0]
134,2026-02-26 22:17:17,[108116|0]
135,2026-02-26 22:17:17,[108118|0]
136,2026-02-26 22:17:17,[108158|0]
137,2026-02-26 22:17:17,[108178|0]
138,2026-02-26 22:17:17,[108178|0]
139,2026-02-26 22:17:17,[108170|0]
140,2026-02-26 22:17:17,[108125|0]
141,2026-02-26 22:17:17,[108148|0]
142,2026-02-26 22:17:17,[108156|0]
143,2026-02-26 22:17:17,[108154|0]
144,2026-02-26 22:17:17,[108151|0]
145,2026-02-26 22:17:17,[108163|0]
146,2026-02-26 22:17:17,[108146|0]
147,2026-02-26 22:17:17,[108190|0]
148,2026-02-26 22:17:18,[108198|0]
149,2026-02-26 22:17:18,[108201|0]
150,2026-02-26 22:17:18,[108155|0]
151,2026-02-26 22:17:18,[108199|0]
152,2026-02-26 22:17:18,[108134|0]
153,2026-02-26 22:17:18,[107987|0]
154,2026-02-26 22:17:18,[107935|0]
155,2026-02-26 22:17:18,[107976|0]
156,2026-02-26 22:17:18,[108015|0]
157,2026-02-26 22:17:18,[108055|0]
158,2026-02-26 22:17:18,[108056|0]
159,2026-02-26 22:17:18,[108072|0]
160,2026-02-26 22:17:18,[108033|0]
161,2026-02-26 22:17:18,[108032|0]
162,2026-02-26 22:17:18,[108061|0]
163,2026-02-26 22:17:18,[108099|0]
164,2026-02-26 22:17:18,[108096|0]
165,2026-02-26 22:17:18,[108117|0]
166,2026-02-26 22:17:18,[108107|0]
167,2026-02-26 22:17:18,[108114|0]
168,2026-02-26 22:17:18,[108128|0]
169,2026-02-26 22:17:18,[108127|0]
170,2026-02-26 22:17:18,[108121|0]
171,2026-02-26 22:17:18,[108169|0]
172,2026-02-26 22:17:18,[108171|0]
173,2026-02-26 22:17:19,[108051|0]
174,2026-02-26 22:17:19,[107937|0]
175,2026-02-26 22:17:19,[107915|0]
176,2026-02-26 22:17:19,[107931|0]
177,2026-02-26 22:17:19,[107966|0]
178,2026-02-26 22:17:19,[107952|0]
179,2026-02-26 22:17:19,[107963|0]
180,2026-02-26 22:17:19,[107957|0]
181,2026-02-26 22:17:19,[107943|0]
182,2026-02-26 22:17:19,[107929|0]
183,2026-02-26 22:17:19,[107960|0]
184,2026-02-26 22:17:19,[107976|0]
185,2026-02-26 22:17:19,[108030|0]
186,2026-02-26 22:17:19,[108025|0]
187,2026-02-26 22:17:19,[108034|0]
188,2026-02-26 22:17:19,[108038|0]
189,2026-02-26 22:17:19,[108047|0]
190,2026-02-26 22:17:19,[108076|0]
191,2026-02-26 22:17:19,[108090|0]
192,2026-02-26 22:17:19,[108115|0]
193,2026-02-26 22:17:19,[108134|0]
194,2026-02-26 22:17:19,[108125|0]
195,2026-02-26 22:17:19,[108000|0]
196,2026-02-26 22:17:19,[107896|0]
197,2026-02-26 22:17:20,[107893|0]
198,2026-02-26 22:17:20,[107938|0]
199,2026-02-26 22:17:20,[107920|0]
200,2026-02-26 22:17:20,[107929|0]
201,2026-02-26 22:17:20,[107952|0]
202,2026-02-26 22:17:20,[107950|0]
203,2026-02-26 22:17:20,[107943|0]
204,2026-02-26 22:17:20,[107956|0]
205,2026-02-26 22:17:20,[107951|0]
206,2026-02-26 22:17:20,[107977|0]
207,2026-02-26 22:17:20,[108016|0]
208,2026-02-26 22:17:20,[108016|0]
209,2026-02-26 22:17:20,[108041|0]
210,2026-02-26 22:17:20,[108055|0]
211,2026-02-26 22:17:20,[108057|0]
212,2026-02-26 22:17:20,[108052|0]
213,2026-02-26 22:17:20,[108079|0]
214,2026-02-26 22:17:20,[108103|0]
215,2026-02-26 22:17:20,[108141|0]
216,2026-02-26 22:17:20,[108157|0]
217,2026-02-26 22:17:20,[108164|0]
218,2026-02-26 22:17:20,[108018|0]
219,2026-02-26 22:17:20,[107933|0]
220,2026-02-26 22:17:20,[107948|0]
221,2026-02-26 22:17:20,[107978|0]
222,2026-02-26 22:17:20,[108003|0]
223,2026-02-26 22:17:21,[108004|0]
224,2026-02-26 22:17:21,[108000|0]
225,2026-02-26 22:17:21,[108006|0]
226,2026-02-26 22:17:21,[108008|0]
227,2026-02-26 22:17:21,[108016|0]
228,2026-02-26 22:17:21,[108039|0]
229,2026-02-26 22:17:21,[108069|0]
230,2026-02-26 22:17:21,[108054|0]
231,2026-02-26 22:17:21,[108102|0]
232,2026-02-26 22:17:21,[108120|0]
233,2026-02-26 22:17:21,[108135|0]
234,2026-02-26 22:17:21,[108129|0]
235,2026-02-26 22:17:21,[108157|0]
236,2026-02-26 22:17:21,[108149|0]
237,2026-02-26 22:17:21,[108202|0]
238,2026-02-26 22:17:21,[108224|0]
239,2026-02-26 22:17:21,[108235|0]
240,2026-02-26 22:17:21,[108261|0]
241,2026-02-26 22:17:21,[108272|0]
242,2026-02-26 22:17:21,[108160|0]
243,2026-02-26 22:17:21,[108053|0]
244,2026-02-26 22:17:21,[108013|0]
245,2026-02-26 22:17:21,[108066|0]
246,2026-02-26 22:17:21,[108095|0]
247,2026-02-26 22:17:22,[108085|0]
248,2026-02-26 22:17:22,[108074|0]
249,2026-02-26 22:17:22,[108099|0]
250,2026-02-26 22:17:22,[108095|0]
251,2026-02-26 22:17:22,[108096|0]
252,2026-02-26 22:17:22,[108105|0]
253,2026-02-26 22:17:22,[108132|0]
254,2026-02-26 22:17:22,[108126|0]
255,2026-02-26 22:17:22,[108166|0]
256,2026-02-26 22:17:22,[108172|0]
257,2026-02-26 22:17:22,[108191|0]
258,2026-02-26 22:17:22,[108199|0]
259,2026-02-26 22:17:22,[108216|0]
260,2026-02-26 22:17:22,[108194|0]
261,2026-02-26 22:17:22,[108243|0]
262,2026-02-26 22:17:22,[108261|0]
263,2026-02-26 22:17:22,[108286|0]
264,2026-02-26 22:17:22,[108293|0]
265,2026-02-26 22:17:22,[108317|0]
266,2026-02-26 22:17:22,[108306|0]
267,2026-02-26 22:17:22,[108239|0]
268,2026-02-26 22:17:22,[108110|0]
269,2026-02-26 22:17:22,[108081|0]
270,2026-02-26 22:17:22,[108128|0]
271,2026-02-26 22:17:22,[108171|0]
272,2026-02-26 22:17:23,[108143|0]
273,2026-02-26 22:17:23,[108183|0]
274,2026-02-26 22:17:23,[108180|0]
275,2026-02-26 22:17:23,[108195|0]
276,2026-02-26 22:17:23,[108177|0]
277,2026-02-26 22:17:23,[108207|0]
278,2026-02-26 22:17:23,[108204|0]
279,2026-02-26 22:17:23,[108249|0]
280,2026-02-26 22:17:23,[108263|0]
281,2026-02-26 22:17:23,[108282|0]
282,2026-02-26 22:17:23,[108279|0]
283,2026-02-26 22:17:23,[108287|0]
284,2026-02-26 22:17:23,[108282|0]
285,2026-02-26 22:17:23,[108322|0]
286,2026-02-26 22:17:23,[108338|0]
287,2026-02-26 22:17:23,[108347|0]
288,2026-02-26 22:17:23,[108372|0]
289,2026-02-26 22:17:23,[108386|0]
290,2026-02-26 22:17:23,[108314|0]
291,2026-02-26 22:17:23,[108177|0]
292,2026-02-26 22:17:23,[108130|0]
293,2026-02-26 22:17:23,[108168|0]
294,2026-02-26 22:17:23,[108219|0]
295,2026-02-26 22:17:23,[108218|0]
296,2026-02-26 22:17:24,[108209|0]
297,2026-02-26 22:17:24,[108233|0]
298,2026-02-26 22:17:24,[108221|0]
299,2026-02-26 22:17:24,[108218|0]
300,2026-02-26 22:17:24,[108230|0]
301,2026-02-26 22:17:24,[108247|0]
302,2026-02-26 22:17:24,[108254|0]
303,2026-02-26 22:17:24,[108299|0]
304,2026-02-26 22:17:24,[108307|0]
305,2026-02-26 22:17:24,[108331|0]
306,2026-02-26 22:17:24,[108319|0]
307,2026-02-26 22:17:24,[108316|0]
308,2026-02-26 22:17:24,[108329|0]
309,2026-02-26 22:17:24,[108343|0]
310,2026-02-26 22:17:24,[108363|0]
311,2026-02-26 22:17:24,[108386|0]
312,2026-02-26 22:17:24,[108412|0]
313,2026-02-26 22:17:24,[108357|0]
314,2026-02-26 22:17:24,[108196|0]
315,2026-02-26 22:17:24,[108146|0]
316,2026-02-26 22:17:24,[108181|0]
317,2026-02-26 22:17:24,[108217|0]
318,2026-02-26 22:17:24,[108240|0]
319,2026-02-26 22:17:24,[108211|0]
320,2026-02-26 22:17:24,[108225|0]
321,2026-02-26 22:17:24,[108220|0]
322,2026-02-26 22:17:25,[108215|0]
323,2026-02-26 22:17:25,[108227|0]
324,2026-02-26 22:17:25,[108238|0]
325,2026-02-26 22:17:25,[108254|0]
326,2026-02-26 22:17:25,[108270|0]
327,2026-02-26 22:17:25,[108286|0]
328,2026-02-26 22:17:25,[108286|0]
329,2026-02-26 22:17:25,[108287|0]
330,2026-02-26 22:17:25,[108294|0]
331,2026-02-26 22:17:25,[108309|0]
332,2026-02-26 22:17:25,[108289|0]
333,2026-02-26 22:17:25,[108311|0]
334,2026-02-26 22:17:25,[108345|0]
335,2026-02-26 22:17:25,[108373|0]
336,2026-02-26 22:17:25,[108373|0]
337,2026-02-26 22:17:25,[108241|0]
338,2026-02-26 22:17:25,[108122|0]
339,2026-02-26 22:17:25,[108129|0]
340,2026-02-26 22:17:25,[108177|0]
341,2026-02-26 22:17:25,[108210|0]
342,2026-02-26 22:17:25,[108227|0]
343,2026-02-26 22:17:25,[108229|0]
344,2026-02-26 22:17:25,[108182|0]
345,2026-02-26 22:17:25,[108187|0]
346,2026-02-26 22:17:25,[108190|0]
347,2026-02-26 22:17:26,[108221|0]
348,2026-02-26 22:17:26,[108246|0]
349,2026-02-26 22:17:26,[108267|0]
350,2026-02-26 22:17:26,[108235|0]
351,2026-02-26 22:17:26,[108280|0]
352,2026-02-26 22:17:26,[108282|0]
353,2026-02-26 22:17:26,[108288|0]
354,2026-02-26 22:17:26,[108291|0]
355,2026-02-26 22:17:26,[108310|0]
356,2026-02-26 22:17:26,[108306|0]
357,2026-02-26 22:17:26,[108337|0]
358,2026-02-26 22:17:26,[108218|0]
359,2026-02-26 22:17:26,[108103|0]
360,2026-02-26 22:17:26,[108080|0]
361,2026-02-26 22:17:26,[108122|0]
362,2026-02-26 22:17:26,[108103|0]
363,2026-02-26 22:17:26,[108135|0]
364,2026-02-26 22:17:26,[108144|0]
365,2026-02-26 22:17:26,[108160|0]
366,2026-02-26 22:17:26,[108135|0]
367,2026-02-26 22:17:26,[108137|0]
368,2026-02-26 22:17:26,[108135|0]
369,2026-02-26 22:17:26,[108174|0]
370,2026-02-26 22:17:26,[108189|0]
371,2026-02-26 22:17:26,[108206|0]
372,2026-02-26 22:17:26,[108211|0]
373,2026-02-26 22:17:27,[108211|0]
374,2026-02-26 22:17:27,[108205|0]
375,2026-02-26 22:17:27,[108230|0]
376,2026-02-26 22:17:27,[108243|0]
377,2026-02-26 22:17:27,[108265|0]
378,2026-02-26 22:17:27,[108278|0]
379,2026-02-26 22:17:27,[108236|0]
380,2026-02-26 22:17:27,[108058|0]
381,2026-02-26 22:17:27,[108022|0]
382,2026-02-26 22:17:27,[108035|0]
383,2026-02-26 22:17:27,[108075|0]
384,2026-02-26 22:17:27,[108076|0]
385,2026-02-26 22:17:27,[108080|0]
386,2026-02-26 22:17:27,[108045|0]
387,2026-02-26 22:17:27,[108058|0]
388,2026-02-26 22:17:27,[108050|0]
389,2026-02-26 22:17:27,[108063|0]
390,2026-02-26 22:17:27,[108080|0]
391,2026-02-26 22:17:27,[108094|0]
392,2026-02-26 22:17:27,[108077|0]
393,2026-02-26 22:17:27,[108109|0]
394,2026-02-26 22:17:27,[108120|0]
395,2026-02-26 22:17:27,[108137|0]
396,2026-02-26 22:17:27,[108137|0]
397,2026-02-26 22:17:27,[108145|0]
398,2026-02-26 22:17:28,[108145|0]
399,2026-02-26 22:17:28,[108175|0]
400,2026-02-26 22:17:28,[108190|0]
401,2026-02-26 22:17:28,[108118|0]
402,2026-02-26 22:17:28,[107985|0]
403,2026-02-26 22:17:28,[107941|0]
404,2026-02-26 22:17:28,[107942|0]
405,2026-02-26 22:17:28,[107984|0]
406,2026-02-26 22:17:28,[107992|0]
407,2026-02-26 22:17:28,[108000|0]
408,2026-02-26 22:17:28,[107984|0]
409,2026-02-26 22:17:28,[107952|0]
410,2026-02-26 22:17:28,[107955|0]
411,2026-02-26 22:17:28,[107988|0]
412,2026-02-26 22:17:28,[108002|0]
413,2026-02-26 22:17:28,[108008|0]
414,2026-02-26 22:17:28,[108031|0]
415,2026-02-26 22:17:28,[108011|0]
416,2026-02-26 22:17:28,[108000|0]
417,2026-02-26 22:17:28,[108029|0]
418,2026-02-26 22:17:28,[108048|0]
419,2026-02-26 22:17:28,[108061|0]
420,2026-02-26 22:17:28,[108080|0]
421,2026-02-26 22:17:28,[108075|0]
422,2026-02-26 22:17:29,[107947|0]
423,2026-02-26 22:17:29,[107871|0]
424,2026-02-26 22:17:29,[107856|0]
425,2026-02-26 22:17:29,[107898|0]
426,2026-02-26 22:17:29,[107895|0]
427,2026-02-26 22:17:29,[107891|0]
428,2026-02-26 22:17:29,[107890|0]
429,2026-02-26 22:17:29,[107881|0]
430,2026-02-26 22:17:29,[107879|0]
431,2026-02-26 22:17:29,[107879|0]
432,2026-02-26 22:17:29,[107898|0]
433,2026-02-26 22:17:29,[107910|0]
434,2026-02-26 22:17:29,[107931|0]
435,2026-02-26 22:17:29,[107953|0]
436,2026-02-26 22:17:29,[107960|0]
437,2026-02-26 22:17:29,[107963|0]
438,2026-02-26 22:17:29,[107983|0]
439,2026-02-26 22:17:29,[107978|0]
440,2026-02-26 22:17:29,[107996|0]
441,2026-02-26 22:17:29,[108027|0]
442,2026-02-26 22:17:29,[108044|0]
443,2026-02-26 22:17:29,[108062|0]
444,2026-02-26 22:17:29,[108042|0]
445,2026-02-26 22:17:29,[107891|0]
446,2026-02-26 22:17:29,[107807|0]
447,2026-02-26 22:17:29,[107828|0]
448,2026-02-26 22:17:30,[107828|0]
449,2026-02-26 22:17:30,[107846|0]
450,2026-02-26 22:17:30,[107842|0]
451,2026-02-26 22:17:30,[107827|0]
452,2026-02-26 22:17:30,[107822|0]
453,2026-02-26 22:17:30,[107826|0]
454,2026-02-26 22:17:30,[107841|0]
455,2026-02-26 22:17:30,[107852|0]
456,2026-02-26 22:17:30,[107865|0]
457,2026-02-26 22:17:30,[107877|0]
458,2026-02-26 22:17:30,[107879|0]
459,2026-02-26 22:17:30,[107906|0]
460,2026-02-26 22:17:30,[107917|0]
461,2026-02-26 22:17:30,[107924|0]
462,2026-02-26 22:17:30,[107938|0]
463,2026-02-26 22:17:30,[107955|0]
464,2026-02-26 22:17:30,[107942|0]
465,2026-02-26 22:17:30,[107981|0]
466,2026-02-26 22:17:30,[107990|0]
467,2026-02-26 22:17:30,[108006|0]
468,2026-02-26 22:17:30,[108024|0]
469,2026-02-26 22:17:30,[108041|0]
470,2026-02-26 22:17:30,[107997|0]
471,2026-02-26 22:17:30,[107879|0]
472,2026-02-26 22:17:31,[107808|0]
473,2026-02-26 22:17:31,[107813|0]
474,2026-02-26 22:17:31,[107839|0]
475,2026-02-26 22:17:31,[107831|0]
476,2026-02-26 22:17:31,[107814|0]
477,2026-02-26 22:17:31,[107854|0]
478,2026-02-26 22:17:31,[107846|0]
479,2026-02-26 22:17:31,[107850|0]
480,2026-02-26 22:17:31,[107847|0]
481,2026-02-26 22:17:31,[107855|0]
482,2026-02-26 22:17:31,[107840|0]
483,2026-02-26 22:17:31,[107876|0]
484,2026-02-26 22:17:31,[107921|0]
485,2026-02-26 22:17:31,[107921|0]
486,2026-02-26 22:17:31,[107923|0]
487,2026-02-26 22:17:31,[107925|0]
488,2026-02-26 22:17:31,[107925|0]
489,2026-02-26 22:17:31,[107960|0]
490,2026-02-26 22:17:31,[107976|0]
491,2026-02-26 22:17:31,[107992|0]
492,2026-02-26 22:17:31,[108014|0]
493,2026-02-26 22:17:31,[108032|0]
494,2026-02-26 22:17:31,[108026|0]
495,2026-02-26 22:17:31,[108009|0]
496,2026-02-26 22:17:31,[107879|0]
497,2026-02-26 22:17:32,[107840|0]
498,2026-02-26 22:17:32,[107857|0]
499,2026-02-26 22:17:32,[107888|0]
500,2026-02-26 22:17:32,[107865|0]
501,2026-02-26 22:17:32,[107918|0]
502,2026-02-26 22:17:32,[107911|0]
503,2026-02-26 22:17:32,[107893|0]
504,2026-02-26 22:17:32,[107890|0]
505,2026-02-26 22:17:32,[107913|0]
506,2026-02-26 22:17:32,[107909|0]
507,2026-02-26 22:17:32,[107961|0]
508,2026-02-26 22:17:32,[107974|0]
509,2026-02-26 22:17:32,[107985|0]
510,2026-02-26 22:17:32,[107992|0]
511,2026-02-26 22:17:32,[107988|0]
512,2026-02-26 22:17:32,[107979|0]
513,2026-02-26 22:17:32,[108019|0]
514,2026-02-26 22:17:32,[108054|0]
515,2026-02-26 22:17:32,[108061|0]
516,2026-02-26 22:17:32,[108084|0]
517,2026-02-26 22:17:32,[108109|0]
518,2026-02-26 22:17:32,[108099|0]
519,2026-02-26 22:17:32,[108088|0]
520,2026-02-26 22:17:32,[107964|0]
521,2026-02-26 22:17:32,[107884|0]
522,2026-02-26 22:17:32,[107911|0]
523,2026-02-26 22:17:33,[107938|0]
524,2026-02-26 22:17:33,[107917|0]
525,2026-02-26 22:17:33,[107936|0]
526,2026-02-26 22:17:33,[107957|0]
527,2026-02-26 22:17:33,[107957|0]
528,2026-02-26 22:17:33,[107948|0]
529,2026-02-26 22:17:33,[107952|0]
530,2026-02-26 22:17:33,[107957|0]
531,2026-02-26 22:17:33,[107999|0]
532,2026-02-26 22:17:33,[108015|0]
533,2026-02-26 22:17:33,[108028|0]
534,2026-02-26 22:17:33,[108035|0]
535,2026-02-26 22:17:33,[108046|0]
536,2026-02-26 22:17:33,[108042|0]
537,2026-02-26 22:17:33,[108091|0]
538,2026-02-26 22:17:33,[108094|0]
539,2026-02-26 22:17:33,[108119|0]
540,2026-02-26 22:17:33,[108139|0]
541,2026-02-26 22:17:33,[108143|0]
542,2026-02-26 22:17:33,[108154|0]
543,2026-02-26 22:17:33,[108171|0]
544,2026-02-26 22:17:33,[108219|0]
545,2026-02-26 22:17:33,[108227|0]
546,2026-02-26 22:17:33,[108167|0]
547,2026-02-26 22:17:34,[108007|0]
548,2026-02-26 22:17:34,[107965|0]
549,2026-02-26 22:17:34,[107995|0]
550,2026-02-26 22:17:34,[108031|0]
551,2026-02-26 22:17:34,[108027|0]
552,2026-02-26 22:17:34,[108030|0]
553,2026-02-26 22:17:34,[108028|0]
554,2026-02-26 22:17:34,[108034|0]
555,2026-02-26 22:17:34,[108043|0]
556,2026-02-26 22:17:34,[108051|0]
557,2026-02-26 22:17:34,[108073|0]
558,2026-02-26 22:17:34,[108097|0]
559,2026-02-26 22:17:34,[108090|0]
560,2026-02-26 22:17:34,[108117|0]
561,2026-02-26 22:17:34,[108140|0]
562,2026-02-26 22:17:34,[108138|0]
563,2026-02-26 22:17:34,[108156|0]
564,2026-02-26 22:17:34,[108163|0]
565,2026-02-26 22:17:34,[108165|0]
566,2026-02-26 22:17:34,[108179|0]
567,2026-02-26 22:17:34,[108179|0]
568,2026-02-26 22:17:34,[108218|0]
569,2026-02-26 22:17:34,[108225|0]
570,2026-02-26 22:17:34,[108248|0]
571,2026-02-26 22:17:34,[108268|0]
572,2026-02-26 22:17:35,[108260|0]
573,2026-02-26 22:17:35,[108175|0]
574,2026-02-26 22:17:35,[108077|0]
575,2026-02-26 22:17:35,[108041|0]
576,2026-02-26 22:17:35,[108077|0]
577,2026-02-26 22:17:35,[108113|0]
578,2026-02-26 22:17:35,[108101|0]
579,2026-02-26 22:17:35,[108123|0]
580,2026-02-26 22:17:35,[108120|0]
581,2026-02-26 22:17:35,[108116|0]
582,2026-02-26 22:17:35,[108111|0]
583,2026-02-26 22:17:35,[108127|0]
584,2026-02-26 22:17:35,[108121|0]
585,2026-02-26 22:17:35,[108157|0]
586,2026-02-26 22:17:35,[108177|0]
587,2026-02-26 22:17:35,[108188|0]
588,2026-02-26 22:17:35,[108206|0]
589,2026-02-26 22:17:35,[108213|0]
590,2026-02-26 22:17:35,[108193|0]
591,2026-02-26 22:17:35,[108231|0]
592,2026-02-26 22:17:35,[108249|0]
593,2026-02-26 22:17:35,[108261|0]
594,2026-02-26 22:17:35,[108292|0]
595,2026-02-26 22:17:35,[108306|0]
596,2026-02-26 22:17:35,[108186|0]
597,2026-02-26 22:17:35,[108096|0]
598,2026-02-26 22:17:36,[108090|0]
599,2026-02-26 22:17:36,[108107|0]
600,2026-02-26 22:17:36,[108146|0]
601,2026-02-26 22:17:36,[108152|0]
602,2026-02-26 22:17:36,[108154|0]
603,2026-02-26 22:17:36,[108165|0]
604,2026-02-26 22:17:36,[108165|0]
605,2026-02-26 22:17:36,[108148|0]
606,2026-02-26 22:17:36,[108174|0]
607,2026-02-26 22:17:36,[108194|0]
608,2026-02-26 22:17:36,[108197|0]
609,2026-02-26 22:17:36,[108237|0]
610,2026-02-26 22:17:36,[108243|0]
611,2026-02-26 22:17:36,[108252|0]
612,2026-02-26 22:17:36,[108261|0]
613,2026-02-26 22:17:36,[108276|0]
614,2026-02-26 22:17:36,[108255|0]
615,2026-02-26 22:17:36,[108309|0]
616,2026-02-26 22:17:36,[108341|0]
617,2026-02-26 22:17:36,[108235|0]
618,2026-02-26 22:17:36,[108106|0]
619,2026-02-26 22:17:36,[108079|0]
620,2026-02-26 22:17:37,[108070|0]
621,2026-02-26 22:17:37,[108120|0]
622,2026-02-26 22:17:37,[108120|0]
623,2026-02-26 22:17:37,[108132|0]
624,2026-02-26 22:17:37,[108140|0]
625,2026-02-26 22:17:37,[108124|0]
626,2026-02-26 22:17:37,[108089|0]
627,2026-02-26 22:17:37,[108134|0]
628,2026-02-26 22:17:37,[108159|0]
629,2026-02-26 22:17:37,[108174|0]
630,2026-02-26 22:17:37,[108192|0]
631,2026-02-26 22:17:37,[108214|0]
632,2026-02-26 22:17:37,[108183|0]
633,2026-02-26 22:17:37,[108219|0]
634,2026-02-26 22:17:37,[108250|0]
635,2026-02-26 22:17:37,[108256|0]
636,2026-02-26 22:17:37,[108284|0]
637,2026-02-26 22:17:37,[108285|0]
638,2026-02-26 22:17:37,[108131|0]
639,2026-02-26 22:17:37,[108039|0]
640,2026-02-26 22:17:37,[108020|0]
641,2026-02-26 22:17:37,[108057|0]
642,2026-02-26 22:17:37,[108075|0]
643,2026-02-26 22:17:37,[108050|0]
644,2026-02-26 22:17:37,[108059|0]
645,2026-02-26 22:17:37,[108064|0]
646,2026-02-26 22:17:37,[108067|0]
647,2026-02-26 22:17:38,[108064|0]
648,2026-02-26 22:17:38,[108082|0]
649,2026-02-26 22:17:38,[108091|0]
650,2026-02-26 22:17:38,[108096|0]
651,2026-02-26 22:17:38,[108139|0]
652,2026-02-26 22:17:38,[108143|0]
653,2026-02-26 22:17:38,[108146|0]
654,2026-02-26 22:17:38,[108170|0]
655,2026-02-26 22:17:38,[108158|0]
656,2026-02-26 22:17:38,[108169|0]
657,2026-02-26 22:17:38,[108207|0]
658,2026-02-26 22:17:38,[108219|0]
659,2026-02-26 22:17:38,[108218|0]
660,2026-02-26 22:17:38,[108083|0]
661,2026-02-26 22:17:38,[107978|0]
662,2026-02-26 22:17:38,[107965|0]
663,2026-02-26 22:17:38,[108021|0]
664,2026-02-26 22:17:38,[108056|0]
665,2026-02-26 22:17:38,[108044|0]
666,2026-02-26 22:17:38,[108051|0]
667,2026-02-26 22:17:38,[108031|0]
668,2026-02-26 22:17:38,[108026|0]
669,2026-02-26 22:17:38,[108040|0]
670,2026-02-26 22:17:38,[108051|0]
671,2026-02-26 22:17:38,[108080|0]
672,2026-02-26 22:17:38,[108102|0]
673,2026-02-26 22:17:39,[108097|0]
674,2026-02-26 22:17:39,[108111|0]
675,2026-02-26 22:17:39,[108124|0]
676,2026-02-26 22:17:39,[108136|0]
677,2026-02-26 22:17:39,[108145|0]
678,2026-02-26 22:17:39,[108175|0]
679,2026-02-26 22:17:39,[108169|0]
680,2026-02-26 22:17:39,[108095|0]
681,2026-02-26 22:17:39,[107994|0]
682,2026-02-26 22:17:39,[107960|0]
683,2026-02-26 22:17:39,[107978|0]
684,2026-02-26 22:17:39,[108007|0]
685,2026-02-26 22:17:39,[108001|0]
686,2026-02-26 22:17:39,[108031|0]
687,2026-02-26 22:17:39,[108031|0]
688,2026-02-26 22:17:39,[108025|0]
689,2026-02-26 22:17:39,[108010|0]
690,2026-02-26 22:17:39,[108007|0]
691,2026-02-26 22:17:39,[108033|0]
692,2026-02-26 22:17:39,[108030|0]
693,2026-02-26 22:17:39,[108066|0]
694,2026-02-26 22:17:39,[108101|0]
695,2026-02-26 22:17:39,[108101|0]
696,2026-02-26 22:17:39,[108124|0]
697,2026-02-26 22:17:40,[108123|0]
698,2026-02-26 22:17:40,[108122|0]
699,2026-02-26 22:17:40,[108165|0]
700,2026-02-26 22:17:40,[108162|0]
701,2026-02-26 22:17:40,[108031|0]
702,2026-02-26 22:17:40,[107931|0]
703,2026-02-26 22:17:40,[107924|0]
704,2026-02-26 22:17:40,[107921|0]
705,2026-02-26 22:17:40,[107950|0]
706,2026-02-26 22:17:40,[107955|0]
707,2026-02-26 22:17:40,[107970|0]
708,2026-02-26 22:17:40,[107968|0]
709,2026-02-26 22:17:40,[107961|0]
710,2026-02-26 22:17:40,[107932|0]
711,2026-02-26 22:17:40,[107985|0]
712,2026-02-26 22:17:40,[108010|0]
713,2026-02-26 22:17:40,[108028|0]
714,2026-02-26 22:17:40,[108066|0]
715,2026-02-26 22:17:40,[108074|0]
716,2026-02-26 22:17:40,[108056|0]
717,2026-02-26 22:17:40,[108094|0]
718,2026-02-26 22:17:40,[108120|0]
719,2026-02-26 22:17:40,[108144|0]
720,2026-02-26 22:17:40,[108160|0]
721,2026-02-26 22:17:40,[108171|0]
722,2026-02-26 22:17:41,[108155|0]
723,2026-02-26 22:17:41,[108231|0]
724,2026-02-26 22:17:41,[108190|0]
725,2026-02-26 22:17:41,[108006|0]
726,2026-02-26 22:17:41,[107925|0]
727,2026-02-26 22:17:41,[107932|0]
728,2026-02-26 22:17:41,[107952|0]
729,2026-02-26 22:17:41,[107957|0]
730,2026-02-26 22:17:41,[107945|0]
731,2026-02-26 22:17:41,[107969|0]
732,2026-02-26 22:17:41,[107964|0]
733,2026-02-26 22:17:41,[107967|0]
734,2026-02-26 22:17:41,[107946|0]
735,2026-02-26 22:17:41,[107997|0]
736,2026-02-26 22:17:41,[108010|0]
737,2026-02-26 22:17:41,[108039|0]
738,2026-02-26 22:17:41,[108059|0]
739,2026-02-26 22:17:41,[108071|0]
740,2026-02-26 22:17:41,[108056|0]
741,2026-02-26 22:17:41,[108112|0]
742,2026-02-26 22:17:41,[108113|0]
743,2026-02-26 22:17:41,[108147|0]
744,2026-02-26 22:17:41,[108165|0]
745,2026-02-26 22:17:41,[108184|0]
746,2026-02-26 22:17:41,[108170|0]
747,2026-02-26 22:17:41,[108212|0]
748,2026-02-26 22:17:42,[108233|0]
749,2026-02-26 22:17:42,[108265|0]
750,2026-02-26 22:17:42,[108191|0]
751,2026-02-26 22:17:42,[108027|0]
752,2026-02-26 22:17:42,[107924|0]
753,2026-02-26 22:17:42,[107975|0]
754,2026-02-26 22:17:42,[107995|0]
755,2026-02-26 22:17:42,[107993|0]
756,2026-02-26 22:17:42,[108002|0]
757,2026-02-26 22:17:42,[108006|0]
758,2026-02-26 22:17:42,[107988|0]
759,2026-02-26 22:17:42,[108002|0]
760,2026-02-26 22:17:42,[108011|0]
761,2026-02-26 22:17:42,[108030|0]
762,2026-02-26 22:17:42,[108057|0]
763,2026-02-26 22:17:42,[108073|0]
764,2026-02-26 22:17:42,[108075|0]
765,2026-02-26 22:17:42,[108115|0]
766,2026-02-26 22:17:42,[108119|0]
767,2026-02-26 22:17:42,[108147|0]
768,2026-02-26 22:17:42,[108151|0]
769,2026-02-26 22:17:42,[108166|0]
770,2026-02-26 22:17:42,[108174|0]
771,2026-02-26 22:17:42,[108210|0]
772,2026-02-26 22:17:42,[108227|0]
773,2026-02-26 22:17:43,[108255|0]
774,2026-02-26 22:17:43,[108276|0]
775,2026-02-26 22:17:43,[108176|0]
776,2026-02-26 22:17:43,[108023|0]
777,2026-02-26 22:17:43,[107995|0]
778,2026-02-26 22:17:43,[108032|0]
779,2026-02-26 22:17:43,[108078|0]
780,2026-02-26 22:17:43,[108102|0]
781,2026-02-26 22:17:43,[108099|0]
782,2026-02-26 22:17:43,[108076|0]
783,2026-02-26 22:17:43,[108096|0]
784,2026-02-26 22:17:43,[108080|0]
785,2026-02-26 22:17:43,[108107|0]
786,2026-02-26 22:17:43,[108136|0]
787,2026-02-26 22:17:43,[108164|0]
788,2026-02-26 22:17:43,[108186|0]
789,2026-02-26 22:17:43,[108200|0]
790,2026-02-26 22:17:43,[108211|0]
791,2026-02-26 22:17:43,[108225|0]
792,2026-02-26 22:17:43,[108235|0]
793,2026-02-26 22:17:43,[108239|0]
794,2026-02-26 22:17:43,[108266|0]
795,2026-02-26 22:17:43,[108303|0]
796,2026-02-26 22:17:43,[108324|0]
797,2026-02-26 22:17:44,[108336|0]
798,2026-02-26 22:17:44,[108176|0]
799,2026-02-26 22:17:44,[108027|0]
800,2026-02-26 22:17:44,[108022|0]
801,2026-02-26 22:17:44,[108072|0]
802,2026-02-26 22:17:44,[108091|0]
803,2026-02-26 22:17:44,[108105|0]
804,2026-02-26 22:17:44,[108122|0]
805,2026-02-26 22:17:44,[108099|0]
806,2026-02-26 22:17:44,[108099|0]
807,2026-02-26 22:17:44,[108094|0]
808,2026-02-26 22:17:44,[108109|0]
809,2026-02-26 22:17:44,[108122|0]
810,2026-02-26 22:17:44,[108150|0]
811,2026-02-26 22:17:44,[108180|0]
812,2026-02-26 22:17:44,[108203|0]
813,2026-02-26 22:17:44,[108216|0]
814,2026-02-26 22:17:44,[108226|0]
815,2026-02-26 22:17:44,[108244|0]
816,2026-02-26 22:17:44,[108252|0]
817,2026-02-26 22:17:44,[108281|0]
818,2026-02-26 22:17:44,[108283|0]
819,2026-02-26 22:17:44,[108319|0]
820,2026-02-26 22:17:44,[108351|0]
821,2026-02-26 22:17:44,[108323|0]
822,2026-02-26 22:17:44,[108155|0]
823,2026-02-26 22:17:45,[108030|0]
824,2026-02-26 22:17:45,[108021|0]
825,2026-02-26 22:17:45,[108076|0]
826,2026-02-26 22:17:45,[108090|0]
827,2026-02-26 22:17:45,[108097|0]
828,2026-02-26 22:17:45,[108109|0]
829,2026-02-26 22:17:45,[108100|0]
830,2026-02-26 22:17:45,[108057|0]
831,2026-02-26 22:17:45,[108094|0]
832,2026-02-26 22:17:45,[108120|0]
833,2026-02-26 22:17:45,[108149|0]
834,2026-02-26 22:17:45,[108168|0]
835,2026-02-26 22:17:45,[108190|0]
836,2026-02-26 22:17:45,[108168|0]
837,2026-02-26 22:17:45,[108199|0]
838,2026-02-26 22:17:45,[108215|0]
839,2026-02-26 22:17:45,[108225|0]
840,2026-02-26 22:17:45,[108252|0]
841,2026-02-26 22:17:45,[108264|0]
842,2026-02-26 22:17:45,[108261|0]
843,2026-02-26 22:17:45,[108308|0]
844,2026-02-26 22:17:45,[108313|0]
845,2026-02-26 22:17:45,[108208|0]
846,2026-02-26 22:17:45,[108040|0]
847,2026-02-26 22:17:45,[107988|0]
848,2026-02-26 22:17:46,[108002|0]
849,2026-02-26 22:17:46,[108054|0]
850,2026-02-26 22:17:46,[108062|0]
851,2026-02-26 22:17:46,[108071|0]
852,2026-02-26 22:17:46,[108064|0]
853,2026-02-26 22:17:46,[108046|0]
854,2026-02-26 22:17:46,[108020|0]
855,2026-02-26 22:17:46,[108064|0]
856,2026-02-26 22:17:46,[108088|0]
857,2026-02-26 22:17:46,[108117|0]
858,2026-02-26 22:17:46,[108138|0]
859,2026-02-26 22:17:46,[108146|0]
860,2026-02-26 22:17:46,[108127|0]
861,2026-02-26 22:17:46,[108160|0]
862,2026-02-26 22:17:46,[108184|0]
863,2026-02-26 22:17:46,[108200|0]
864,2026-02-26 22:17:46,[108208|0]
865,2026-02-26 22:17:46,[108233|0]
866,2026-02-26 22:17:46,[108227|0]
867,2026-02-26 22:17:46,[108201|0]
868,2026-02-26 22:17:46,[108037|0]
869,2026-02-26 22:17:46,[107959|0]
870,2026-02-26 22:17:46,[107989|0]
871,2026-02-26 22:17:46,[108032|0]
872,2026-02-26 22:17:47,[108037|0]
873,2026-02-26 22:17:47,[108093|0]
874,2026-02-26 22:17:47,[108067|0]
875,2026-02-26 22:17:47,[108050|0]
876,2026-02-26 22:17:47,[108039|0]
877,2026-02-26 22:17:47,[108078|0]
878,2026-02-26 22:17:47,[108087|0]
879,2026-02-26 22:17:47,[108130|0]
880,2026-02-26 22:17:47,[108165|0]
881,2026-02-26 22:17:47,[108170|0]
882,2026-02-26 22:17:47,[108170|0]
883,2026-02-26 22:17:47,[108164|0]
884,2026-02-26 22:17:47,[108169|0]
885,2026-02-26 22:17:47,[108215|0]
886,2026-02-26 22:17:47,[108227|0]
887,2026-02-26 22:17:47,[108252|0]
888,2026-02-26 22:17:47,[108278|0]
889,2026-02-26 22:17:47,[108245|0]
890,2026-02-26 22:17:47,[108052|0]
891,2026-02-26 22:17:47,[107972|0]
892,2026-02-26 22:17:47,[107974|0]
893,2026-02-26 22:17:47,[108011|0]
894,2026-02-26 22:17:47,[108028|0]
895,2026-02-26 22:17:47,[108018|0]
896,2026-02-26 22:17:47,[108007|0]
897,2026-02-26 22:17:47,[108012|0]
898,2026-02-26 22:17:48,[108009|0]
899,2026-02-26 22:17:48,[108018|0]
900,2026-02-26 22:17:48,[108043|0]
901,2026-02-26 22:17:48,[108067|0]
902,2026-02-26 22:17:48,[108082|0]
903,2026-02-26 22:17:48,[108131|0]
904,2026-02-26 22:17:48,[108128|0]
905,2026-02-26 22:17:48,[108131|0]
906,2026-02-26 22:17:48,[108154|0]
907,2026-02-26 22:17:48,[108153|0]
908,2026-02-26 22:17:48,[108170|0]
909,2026-02-26 22:17:48,[108195|0]
910,2026-02-26 22:17:48,[108232|0]
911,2026-02-26 22:17:48,[108239|0]
912,2026-02-26 22:17:48,[108117|0]
913,2026-02-26 22:17:48,[107955|0]
914,2026-02-26 22:17:48,[107930|0]
915,2026-02-26 22:17:48,[107970|0]
916,2026-02-26 22:17:48,[108006|0]
917,2026-02-26 22:17:48,[108018|0]
918,2026-02-26 22:17:48,[108032|0]
919,2026-02-26 22:17:48,[107987|0]
920,2026-02-26 22:17:48,[107981|0]
921,2026-02-26 22:17:48,[108004|0]
922,2026-02-26 22:17:49,[108026|0]
923,2026-02-26 22:17:49,[108052|0]
924,2026-02-26 22:17:49,[108085|0]
925,2026-02-26 22:17:49,[108085|0]
926,2026-02-26 22:17:49,[108080|0]
927,2026-02-26 22:17:49,[108102|0]
928,2026-02-26 22:17:49,[108121|0]
929,2026-02-26 22:17:49,[108136|0]
930,2026-02-26 22:17:49,[108147|0]
931,2026-02-26 22:17:49,[108146|0]
932,2026-02-26 22:17:49,[108178|0]
933,2026-02-26 22:17:49,[108213|0]
934,2026-02-26 22:17:49,[108184|0]
935,2026-02-26 22:17:49,[108013|0]
936,2026-02-26 22:17:49,[107911|0]
937,2026-02-26 22:17:49,[107912|0]
938,2026-02-26 22:17:49,[107945|0]
939,2026-02-26 22:17:49,[107965|0]
940,2026-02-26 22:17:49,[107965|0]
941,2026-02-26 22:17:49,[107982|0]
942,2026-02-26 22:17:49,[107950|0]
943,2026-02-26 22:17:49,[107944|0]
944,2026-02-26 22:17:49,[107927|0]
945,2026-02-26 22:17:49,[107976|0]
946,2026-02-26 22:17:49,[108000|0]
947,2026-02-26 22:17:50,[108033|0]
948,2026-02-26 22:17:50,[108063|0]
949,2026-02-26 22:17:50,[108075|0]
950,2026-02-26 22:17:50,[108051|0]
951,2026-02-26 22:17:50,[108070|0]
952,2026-02-26 22:17:50,[108079|0]
953,2026-02-26 22:17:50,[108102|0]
954,2026-02-26 22:17:50,[108120|0]
955,2026-02-26 22:17:50,[108147|0]
956,2026-02-26 22:17:50,[108070|0]
957,2026-02-26 22:17:50,[107927|0]
958,2026-02-26 22:17:50,[107852|0]
959,2026-02-26 22:17:50,[107855|0]
960,2026-02-26 22:17:50,[107865|0]
961,2026-02-26 22:17:50,[107875|0]
962,2026-02-26 22:17:50,[107857|0]
963,2026-02-26 22:17:50,[107896|0]
964,2026-02-26 22:17:50,[107869|0]
965,2026-02-26 22:17:50,[107867|0]
966,2026-02-26 22:17:50,[107878|0]
967,2026-02-26 22:17:50,[107899|0]
968,2026-02-26 22:17:50,[107910|0]
969,2026-02-26 22:17:50,[107950|0]
970,2026-02-26 22:17:50,[107974|0]
971,2026-02-26 22:17:50,[107982|0]
972,2026-02-26 22:17:50,[107987|0]
973,2026-02-26 22:17:51,[107994|0]
974,2026-02-26 22:17:51,[107985|0]
975,2026-02-26 22:17:51,[108043|0]
976,2026-02-26 22:17:51,[108049|0]
977,2026-02-26 22:17:51,[107918|0]
978,2026-02-26 22:17:51,[107793|0]
979,2026-02-26 22:17:51,[107762|0]
980,2026-02-26 22:17:51,[107768|0]
981,2026-02-26 22:17:51,[107816|0]
982,2026-02-26 22:17:51,[107827|0]
983,2026-02-26 22:17:51,[107851|0]
984,2026-02-26 22:17:51,[107834|0]
985,2026-02-26 22:17:51,[107822|0]
986,2026-02-26 22:17:51,[107798|0]
987,2026-02-26 22:17:51,[107848|0]
988,2026-02-26 22:17:51,[107876|0]
989,2026-02-26 22:17:51,[107915|0]
990,2026-02-26 22:17:51,[107936|0]
991,2026-02-26 22:17:51,[107926|0]
992,2026-02-26 22:17:51,[107919|0]
993,2026-02-26 22:17:51,[107951|0]
994,2026-02-26 22:17:51,[107973|0]
995,2026-02-26 22:17:51,[107993|0]
996,2026-02-26 22:17:51,[108002|0]
997,2026-02-26 22:17:52,[107888|0]
998,2026-02-26 22:17:52,[107749|0]
999,2026-02-26 22:17:52,[107739|0]
1000,2026-02-26 22:17:52,[107770|0]
1001,2026-02-26 22:17:52,[107799|0]
1002,2026-02-26 22:17:52,[107830|0]
1003,2026-02-26 22:17:52,[107833|0]
1004,2026-02-26 22:17:52,[107787|0]
1005,2026-02-26 22:17:52,[107786|0]
1006,2026-02-26 22:17:52,[107812|0]
1007,2026-02-26 22:17:52,[107853|0]
1008,2026-02-26 22:17:52,[107874|0]
1009,2026-02-26 22:17:52,[107885|0]
1010,2026-02-26 22:17:52,[107897|0]
1011,2026-02-26 22:17:52,[107928|0]
1012,2026-02-26 22:17:52,[107934|0]
1013,2026-02-26 22:17:52,[107951|0]
1014,2026-02-26 22:17:52,[107963|0]
1015,2026-02-26 22:17:52,[107989|0]
1016,2026-02-26 22:17:52,[107988|0]
1017,2026-02-26 22:17:52,[107924|0]
1018,2026-02-26 22:17:52,[107757|0]
1019,2026-02-26 22:17:52,[107705|0]
1020,2026-02-26 22:17:52,[107723|0]
1021,2026-02-26 22:17:52,[107738|0]
1022,2026-02-26 22:17:53,[107742|0]
1023,2026-02-26 22:17:53,[107771|0]
1024,2026-02-26 22:17:53,[107774|0]
1025,2026-02-26 22:17:53,[107764|0]
1026,2026-02-26 22:17:53,[107766|0]
1027,2026-02-26 22:17:53,[107782|0]
1028,2026-02-26 22:17:53,[107826|0]
1029,2026-02-26 22:17:53,[107855|0]
1030,2026-02-26 22:17:53,[107883|0]
1031,2026-02-26 22:17:53,[107889|0]
1032,2026-02-26 22:17:53,[107893|0]
1033,2026-02-26 22:17:53,[107893|0]
1034,2026-02-26 22:17:53,[107928|0]
1035,2026-02-26 22:17:53,[107976|0]
1036,2026-02-26 22:17:53,[107985|0]
1037,2026-02-26 22:17:53,[108000|0]
1038,2026-02-26 22:17:53,[107991|0]
1039,2026-02-26 22:17:53,[107819|0]
1040,2026-02-26 22:17:53,[107682|0]
1041,2026-02-26 22:17:53,[107664|0]
1042,2026-02-26 22:17:53,[107686|0]
1043,2026-02-26 22:17:53,[107696|0]
1044,2026-02-26 22:17:53,[107689|0]
1045,2026-02-26 22:17:53,[107689|0]
1046,2026-02-26 22:17:53,[107695|0]
1047,2026-02-26 22:17:53,[107686|0]
1048,2026-02-26 22:17:54,[107699|0]
1049,2026-02-26 22:17:54,[107714|0]
1050,2026-02-26 22:17:54,[107729|0]
1051,2026-02-26 22:17:54,[107771|0]
1052,2026-02-26 22:17:54,[107809|0]
1053,2026-02-26 22:17:54,[107841|0]
1054,2026-02-26 22:17:54,[107839|0]
1055,2026-02-26 22:17:54,[107841|0]
1056,2026-02-26 22:17:54,[107855|0]
1057,2026-02-26 22:17:54,[107883|0]
1058,2026-02-26 22:17:54,[107917|0]
1059,2026-02-26 22:17:54,[107981|0]
1060,2026-02-26 22:17:54,[108018|0]
1061,2026-02-26 22:17:54,[108017|0]
1062,2026-02-26 22:17:54,[108027|0]
1063,2026-02-26 22:17:54,[107914|0]
1064,2026-02-26 22:17:54,[107742|0]
1065,2026-02-26 22:17:54,[107723|0]
1066,2026-02-26 22:17:54,[107760|0]
1067,2026-02-26 22:17:54,[107810|0]
1068,2026-02-26 22:17:54,[107838|0]
1069,2026-02-26 22:17:54,[107863|0]
1070,2026-02-26 22:17:54,[107837|0]
1071,2026-02-26 22:17:54,[107851|0]
1072,2026-02-26 22:17:55,[107856|0]
1073,2026-02-26 22:17:55,[107877|0]
1074,2026-02-26 22:17:55,[107911|0]
1075,2026-02-26 22:17:55,[107922|0]
1076,2026-02-26 22:17:55,[107917|0]
1077,2026-02-26 22:17:55,[107958|0]
1078,2026-02-26 22:17:55,[107962|0]
1079,2026-02-26 22:17:55,[107987|0]
1080,2026-02-26 22:17:55,[107993|0]
1081,2026-02-26 22:17:55,[108012|0]
1082,2026-02-26 22:17:55,[108003|0]
1083,2026-02-26 22:17:55,[108061|0]
1084,2026-02-26 22:17:55,[108078|0]
1085,2026-02-26 22:17:55,[107995|0]
1086,2026-02-26 22:17:55,[107831|0]
1087,2026-02-26 22:17:55,[107776|0]
1088,2026-02-26 22:17:55,[107790|0]
1089,2026-02-26 22:17:55,[107863|0]
1090,2026-02-26 22:17:55,[107878|0]
1091,2026-02-26 22:17:55,[107907|0]
1092,2026-02-26 22:17:55,[107886|0]
1093,2026-02-26 22:17:55,[107866|0]
1094,2026-02-26 22:17:55,[107838|0]
1095,2026-02-26 22:17:55,[107892|0]
1096,2026-02-26 22:17:55,[107922|0]
1097,2026-02-26 22:17:56,[107952|0]
1098,2026-02-26 22:17:56,[107969|0]
1099,2026-02-26 22:17:56,[107980|0]
1100,2026-02-26 22:17:56,[107961|0]
1101,2026-02-26 22:17:56,[108000|0]
1102,2026-02-26 22:17:56,[108012|0]
1103,2026-02-26 22:17:56,[108029|0]
1104,2026-02-26 22:17:56,[108051|0]
1105,2026-02-26 22:17:56,[108084|0]
1106,2026-02-26 22:17:56,[108079|0]
