Packet_Number,Timestamp,Data
1,2026-02-26 22:17:12,[110945|0]
2,2026-02-26 22:17:12,[110931|0]
3,2026-02-26 22:17:12,[110991|0]
4,2026-02-26 22:17:12,[111008|0]
5,2026-02-26 22:17:12,[111038|0]
6,2026-02-26 22:17:12,[111074|0]
7,2026-02-26 22:17:12,[111100|0]
8,2026-02-26 22:17:12,[111117|0]
9,2026-02-26 22:17:12,[111177|0]
10,2026-02-26 22:17:12,[111217|0]
11,2026-02-26 22:17:12,[111094|0]
12,2026-02-26 22:17:12,[110812|0]
13,2026-02-26 22:17:12,[110718|0]
14,2026-02-26 22:17:12,[110735|0]
15,2026-02-26 22:17:12,[110864|0]
16,2026-02-26 22:17:12,[110910|0]
17,2026-02-26 22:17:12,[110941|0]
18,2026-02-26 22:17:12,[110930|0]
19,2026-02-26 22:17:12,[110888|0]
20,2026-02-26 22:17:12,[110847|0]
21,2026-02-26 22:17:12,[110904|0]
22,2026-02-26 22:17:13,[110955|0]
23,2026-02-26 22:17:13,[111020|0]
24,2026-02-26 22:17:13,[111059|0]
25,2026-02-26 22:17:13,[111071|0]
26,2026-02-26 22:17:13,[111057|0]
27,2026-02-26 22:17:13,[111115|0]
28,2026-02-26 22:17:13,[111139|0]
29,2026-02-26 22:17:13,[111158|0]
30,2026-02-26 22:17:13,[111214|0]
31,2026-02-26 22:17:13,[111280|0]
32,2026-02-26 22:17:13,[111257|0]
33,2026-02-26 22:17:13,[111011|0]
34,2026-02-26 22:17:13,[110781|0]
35,2026-02-26 22:17:13,[110755|0]
36,2026-02-26 22:17:13,[110834|0]
37,2026-02-26 22:17:13,[110902|0]
38,2026-02-26 22:17:13,[110907|0]
39,2026-02-26 22:17:13,[110944|0]
40,2026-02-26 22:17:13,[110924|0]
41,2026-02-26 22:17:13,[110927|0]
42,2026-02-26 22:17:13,[110940|0]
43,2026-02-26 22:17:13,[110963|0]
44,2026-02-26 22:17:13,[111009|0]
45,2026-02-26 22:17:13,[111067|0]
46,2026-02-26 22:17:13,[111109|0]
47,2026-02-26 22:17:14,[111142|0]
48,2026-02-26 22:17:14,[111157|0]
49,2026-02-26 22:17:14,[111155|0]
50,2026-02-26 22:17:14,[111173|0]
51,2026-02-26 22:17:14,[111222|0]
52,2026-02-26 22:17:14,[111269|0]
53,2026-02-26 22:17:14,[111277|0]
54,2026-02-26 22:17:14,[110989|0]
55,2026-02-26 22:17:14,[110775|0]
56,2026-02-26 22:17:14,[110755|0]
57,2026-02-26 22:17:14,[110859|0]
58,2026-02-26 22:17:14,[110925|0]
59,2026-02-26 22:17:14,[110940|0]
60,2026-02-26 22:17:14,[110957|0]
61,2026-02-26 22:17:14,[110929|0]
62,2026-02-26 22:17:14,[110895|0]
63,2026-02-26 22:17:14,[110929|0]
64,2026-02-26 22:17:14,[110972|0]
65,2026-02-26 22:17:14,[111019|0]
66,2026-02-26 22:17:14,[111055|0]
67,2026-02-26 22:17:14,[111074|0]
68,2026-02-26 22:17:14,[111076|0]
69,2026-02-26 22:17:14,[111097|0]
70,2026-02-26 22:17:14,[111107|0]
71,2026-02-26 22:17:14,[111130|0]
72,2026-02-26 22:17:14,[111185|0]
73,2026-02-26 22:17:15,[111134|0]
74,2026-02-26 22:17:15,[110865|0]
75,2026-02-26 22:17:15,[110705|0]
76,2026-02-26 22:17:15,[110727|0]
77,2026-02-26 22:17:15,[110820|0]
78,2026-02-26 22:17:15,[110872|0]
79,2026-02-26 22:17:15,[110876|0]
80,2026-02-26 22:17:15,[110873|0]
81,2026-02-26 22:17:15,[110844|0]
82,2026-02-26 22:17:15,[110833|0]
83,2026-02-26 22:17:15,[110866|0]
84,2026-02-26 22:17:15,[110900|0]
85,2026-02-26 22:17:15,[110922|0]
86,2026-02-26 22:17:15,[110967|0]
87,2026-02-26 22:17:15,[110997|0]
88,2026-02-26 22:17:15,[110997|0]
89,2026-02-26 22:17:15,[110990|0]
90,2026-02-26 22:17:15,[111014|0]
91,2026-02-26 22:17:15,[111056|0]
92,2026-02-26 22:17:15,[111034|0]
93,2026-02-26 22:17:15,[110816|0]
94,2026-02-26 22:17:15,[110613|0]
95,2026-02-26 22:17:15,[110586|0]
96,2026-02-26 22:17:15,[110657|0]
97,2026-02-26 22:17:15,[110710|0]
98,2026-02-26 22:17:16,[110708|0]
99,2026-02-26 22:17:16,[110741|0]
100,2026-02-26 22:17:16,[110719|0]
101,2026-02-26 22:17:16,[110697|0]
102,2026-02-26 22:17:16,[110716|0]
103,2026-02-26 22:17:16,[110770|0]
104,2026-02-26 22:17:16,[110777|0]
105,2026-02-26 22:17:16,[110841|0]
106,2026-02-26 22:17:16,[110867|0]
107,2026-02-26 22:17:16,[110883|0]
108,2026-02-26 22:17:16,[110899|0]
109,2026-02-26 22:17:16,[110903|0]
110,2026-02-26 22:17:16,[110907|0]
111,2026-02-26 22:17:16,[110981|0]
112,2026-02-26 22:17:16,[110926|0]
113,2026-02-26 22:17:16,[110612|0]
114,2026-02-26 22:17:16,[110448|0]
115,2026-02-26 22:17:16,[110472|0]
116,2026-02-26 22:17:16,[110505|0]
117,2026-02-26 22:17:16,[110537|0]
118,2026-02-26 22:17:16,[110555|0]
119,2026-02-26 22:17:16,[110553|0]
120,2026-02-26 22:17:16,[110544|0]
121,2026-02-26 22:17:16,[110553|0]
122,2026-02-26 22:17:17,[110530|0]
123,2026-02-26 22:17:17,[110593|0]
124,2026-02-26 22:17:17,[110645|0]
125,2026-02-26 22:17:17,[110673|0]
126,2026-02-26 22:17:17,[110694|0]
127,2026-02-26 22:17:17,[110704|0]
128,2026-02-26 22:17:17,[110695|0]
129,2026-02-26 22:17:17,[110733|0]
130,2026-02-26 22:17:17,[110764|0]
131,2026-02-26 22:17:17,[110809|0]
132,2026-02-26 22:17:17,[110823|0]
133,2026-02-26 22:17:17,[110621|0]
134,2026-02-26 22:17:17,[110338|0]
135,2026-02-26 22:17:17,[110298|0]
136,2026-02-26 22:17:17,[110356|0]
137,2026-02-26 22:17:17,[110388|0]
138,2026-02-26 22:17:17,[110395|0]
139,2026-02-26 22:17:17,[110385|0]
140,2026-02-26 22:17:17,[110331|0]
141,2026-02-26 22:17:17,[110335|0]
142,2026-02-26 22:17:17,[110346|0]
143,2026-02-26 22:17:17,[110350|0]
144,2026-02-26 22:17:17,[110357|0]
145,2026-02-26 22:17:17,[110395|0]
146,2026-02-26 22:17:17,[110387|0]
147,2026-02-26 22:17:17,[110456|0]
148,2026-02-26 22:17:18,[110466|0]
149,2026-02-26 22:17:18,[110467|0]
150,2026-02-26 22:17:18,[110432|0]
151,2026-02-26 22:17:18,[110522|0]
152,2026-02-26 22:17:18,[110410|0]
153,2026-02-26 22:17:18,[110112|0]
154,2026-02-26 22:17:18,[109964|0]
155,2026-02-26 22:17:18,[109996|0]
156,2026-02-26 22:17:18,[110066|0]
157,2026-02-26 22:17:18,[110130|0]
158,2026-02-26 22:17:18,[110148|0]
159,2026-02-26 22:17:18,[110138|0]
160,2026-02-26 22:17:18,[110090|0]
161,2026-02-26 22:17:18,[110080|0]
162,2026-02-26 22:17:18,[110126|0]
163,2026-02-26 22:17:18,[110175|0]
164,2026-02-26 22:17:18,[110205|0]
165,2026-02-26 22:17:18,[110238|0]
166,2026-02-26 22:17:18,[110243|0]
167,2026-02-26 22:17:18,[110249|0]
168,2026-02-26 22:17:18,[110268|0]
169,2026-02-26 22:17:18,[110287|0]
170,2026-02-26 22:17:18,[110293|0]
171,2026-02-26 22:17:18,[110366|0]
172,2026-02-26 22:17:18,[110355|0]
173,2026-02-26 22:17:19,[110101|0]
174,2026-02-26 22:17:19,[109847|0]
175,2026-02-26 22:17:19,[109785|0]
176,2026-02-26 22:17:19,[109814|0]
177,2026-02-26 22:17:19,[109851|0]
178,2026-02-26 22:17:19,[109831|0]
179,2026-02-26 22:17:19,[109850|0]
180,2026-02-26 22:17:19,[109832|0]
181,2026-02-26 22:17:19,[109820|0]
182,2026-02-26 22:17:19,[109807|0]
183,2026-02-26 22:17:19,[109848|0]
184,2026-02-26 22:17:19,[109890|0]
185,2026-02-26 22:17:19,[109938|0]
186,2026-02-26 22:17:19,[109959|0]
187,2026-02-26 22:17:19,[109965|0]
188,2026-02-26 22:17:19,[109988|0]
189,2026-02-26 22:17:19,[110008|0]
190,2026-02-26 22:17:19,[110041|0]
191,2026-02-26 22:17:19,[110076|0]
192,2026-02-26 22:17:19,[110123|0]
193,2026-02-26 22:17:19,[110153|0]
194,2026-02-26 22:17:19,[110150|0]
195,2026-02-26 22:17:19,[109893|0]
196,2026-02-26 22:17:19,[109663|0]
197,2026-02-26 22:17:20,[109613|0]
198,2026-02-26 22:17:20,[109691|0]
199,2026-02-26 22:17:20,[109682|0]
200,2026-02-26 22:17:20,[109696|0]
201,2026-02-26 22:17:20,[109720|0]
202,2026-02-26 22:17:20,[109702|0]
203,2026-02-26 22:17:20,[109678|0]
204,2026-02-26 22:17:20,[109707|0]
205,2026-02-26 22:17:20,[109718|0]
206,2026-02-26 22:17:20,[109766|0]
207,2026-02-26 22:17:20,[109827|0]
208,2026-02-26 22:17:20,[109827|0]
209,2026-02-26 22:17:20,[109854|0]
210,2026-02-26 22:17:20,[109894|0]
211,2026-02-26 22:17:20,[109923|0]
212,2026-02-26 22:17:20,[109923|0]
213,2026-02-26 22:17:20,[109957|0]
214,2026-02-26 22:17:20,[110002|0]
215,2026-02-26 22:17:20,[110053|0]
216,2026-02-26 22:17:20,[110108|0]
217,2026-02-26 22:17:20,[110117|0]
218,2026-02-26 22:17:20,[109844|0]
219,2026-02-26 22:17:20,[109647|0]
220,2026-02-26 22:17:20,[109623|0]
221,2026-02-26 22:17:20,[109689|0]
222,2026-02-26 22:17:20,[109727|0]
223,2026-02-26 22:17:21,[109762|0]
224,2026-02-26 22:17:21,[109759|0]
225,2026-02-26 22:17:21,[109779|0]
226,2026-02-26 22:17:21,[109768|0]
227,2026-02-26 22:17:21,[109790|0]
228,2026-02-26 22:17:21,[109837|0]
229,2026-02-26 22:17:21,[109893|0]
230,2026-02-26 22:17:21,[109907|0]
231,2026-02-26 22:17:21,[109970|0]
232,2026-02-26 22:17:21,[110000|0]
233,2026-02-26 22:17:21,[110020|0]
234,2026-02-26 22:17:21,[110053|0]
235,2026-02-26 22:17:21,[110091|0]
236,2026-02-26 22:17:21,[110097|0]
237,2026-02-26 22:17:21,[110179|0]
238,2026-02-26 22:17:21,[110211|0]
239,2026-02-26 22:17:21,[110244|0]
240,2026-02-26 22:17:21,[110286|0]
241,2026-02-26 22:17:21,[110345|0]
242,2026-02-26 22:17:21,[110163|0]
243,2026-02-26 22:17:21,[109901|0]
244,2026-02-26 22:17:21,[109801|0]
245,2026-02-26 22:17:21,[109870|0]
246,2026-02-26 22:17:21,[109941|0]
247,2026-02-26 22:17:22,[109936|0]
248,2026-02-26 22:17:22,[109934|0]
249,2026-02-26 22:17:22,[109981|0]
250,2026-02-26 22:17:22,[109967|0]
251,2026-02-26 22:17:22,[109972|0]
252,2026-02-26 22:17:22,[110007|0]
253,2026-02-26 22:17:22,[110048|0]
254,2026-02-26 22:17:22,[110054|0]
255,2026-02-26 22:17:22,[110123|0]
256,2026-02-26 22:17:22,[110153|0]
257,2026-02-26 22:17:22,[110176|0]
258,2026-02-26 22:17:22,[110190|0]
259,2026-02-26 22:17:22,[110229|0]
260,2026-02-26 22:17:22,[110240|0]
261,2026-02-26 22:17:22,[110302|0]
262,2026-02-26 22:17:22,[110335|0]
263,2026-02-26 22:17:22,[110372|0]
264,2026-02-26 22:17:22,[110402|0]
265,2026-02-26 22:17:22,[110442|0]
266,2026-02-26 22:17:22,[110446|0]
267,2026-02-26 22:17:22,[110315|0]
268,2026-02-26 22:17:22,[110045|0]
269,2026-02-26 22:17:22,[109968|0]
270,2026-02-26 22:17:22,[110043|0]
271,2026-02-26 22:17:22,[110151|0]
272,2026-02-26 22:17:23,[110131|0]
273,2026-02-26 22:17:23,[110185|0]
274,2026-02-26 22:17:23,[110179|0]
275,2026-02-26 22:17:23,[110171|0]
276,2026-02-26 22:17:23,[110180|0]
277,2026-02-26 22:17:23,[110217|0]
278,2026-02-26 22:17:23,[110249|0]
279,2026-02-26 22:17:23,[110317|0]
280,2026-02-26 22:17:23,[110351|0]
281,2026-02-26 22:17:23,[110381|0]
282,2026-02-26 22:17:23,[110403|0]
283,2026-02-26 22:17:23,[110403|0]
284,2026-02-26 22:17:23,[110429|0]
285,2026-02-26 22:17:23,[110477|0]
286,2026-02-26 22:17:23,[110505|0]
287,2026-02-26 22:17:23,[110538|0]
288,2026-02-26 22:17:23,[110583|0]
289,2026-02-26 22:17:23,[110602|0]
290,2026-02-26 22:17:23,[110489|0]
291,2026-02-26 22:17:23,[110208|0]
292,2026-02-26 22:17:23,[110101|0]
293,2026-02-26 22:17:23,[110157|0]
294,2026-02-26 22:17:23,[110234|0]
295,2026-02-26 22:17:23,[110258|0]
296,2026-02-26 22:17:24,[110265|0]
297,2026-02-26 22:17:24,[110302|0]
298,2026-02-26 22:17:24,[110273|0]
299,2026-02-26 22:17:24,[110272|0]
300,2026-02-26 22:17:24,[110295|0]
301,2026-02-26 22:17:24,[110346|0]
302,2026-02-26 22:17:24,[110376|0]
303,2026-02-26 22:17:24,[110432|0]
304,2026-02-26 22:17:24,[110468|0]
305,2026-02-26 22:17:24,[110477|0]
306,2026-02-26 22:17:24,[110490|0]
307,2026-02-26 22:17:24,[110498|0]
308,2026-02-26 22:17:24,[110526|0]
309,2026-02-26 22:17:24,[110570|0]
310,2026-02-26 22:17:24,[110602|0]
311,2026-02-26 22:17:24,[110641|0]
312,2026-02-26 22:17:24,[110688|0]
313,2026-02-26 22:17:24,[110590|0]
314,2026-02-26 22:17:24,[110281|0]
315,2026-02-26 22:17:24,[110155|0]
316,2026-02-26 22:17:24,[110189|0]
317,2026-02-26 22:17:24,[110258|0]
318,2026-02-26 22:17:24,[110288|0]
319,2026-02-26 22:17:24,[110279|0]
320,2026-02-26 22:17:24,[110293|0]
321,2026-02-26 22:17:24,[110284|0]
322,2026-02-26 22:17:25,[110269|0]
323,2026-02-26 22:17:25,[110291|0]
324,2026-02-26 22:17:25,[110339|0]
325,2026-02-26 22:17:25,[110355|0]
326,2026-02-26 22:17:25,[110390|0]
327,2026-02-26 22:17:25,[110426|0]
328,2026-02-26 22:17:25,[110426|0]
329,2026-02-26 22:17:25,[110439|0]
330,2026-02-26 22:17:25,[110462|0]
331,2026-02-26 22:17:25,[110488|0]
332,2026-02-26 22:17:25,[110478|0]
333,2026-02-26 22:17:25,[110519|0]
334,2026-02-26 22:17:25,[110561|0]
335,2026-02-26 22:17:25,[110612|0]
336,2026-02-26 22:17:25,[110607|0]
337,2026-02-26 22:17:25,[110361|0]
338,2026-02-26 22:17:25,[110124|0]
339,2026-02-26 22:17:25,[110119|0]
340,2026-02-26 22:17:25,[110187|0]
341,2026-02-26 22:17:25,[110250|0]
342,2026-02-26 22:17:25,[110276|0]
343,2026-02-26 22:17:25,[110296|0]
344,2026-02-26 22:17:25,[110217|0]
345,2026-02-26 22:17:25,[110220|0]
346,2026-02-26 22:17:25,[110239|0]
347,2026-02-26 22:17:26,[110272|0]
348,2026-02-26 22:17:26,[110328|0]
349,2026-02-26 22:17:26,[110363|0]
350,2026-02-26 22:17:26,[110354|0]
351,2026-02-26 22:17:26,[110399|0]
352,2026-02-26 22:17:26,[110416|0]
353,2026-02-26 22:17:26,[110429|0]
354,2026-02-26 22:17:26,[110441|0]
355,2026-02-26 22:17:26,[110472|0]
356,2026-02-26 22:17:26,[110485|0]
357,2026-02-26 22:17:26,[110538|0]
358,2026-02-26 22:17:26,[110302|0]
359,2026-02-26 22:17:26,[110052|0]
360,2026-02-26 22:17:26,[109994|0]
361,2026-02-26 22:17:26,[110070|0]
362,2026-02-26 22:17:26,[110062|0]
363,2026-02-26 22:17:26,[110105|0]
364,2026-02-26 22:17:26,[110126|0]
365,2026-02-26 22:17:26,[110109|0]
366,2026-02-26 22:17:26,[110096|0]
367,2026-02-26 22:17:26,[110101|0]
368,2026-02-26 22:17:26,[110114|0]
369,2026-02-26 22:17:26,[110175|0]
370,2026-02-26 22:17:26,[110212|0]
371,2026-02-26 22:17:26,[110232|0]
372,2026-02-26 22:17:26,[110249|0]
373,2026-02-26 22:17:27,[110269|0]
374,2026-02-26 22:17:27,[110244|0]
375,2026-02-26 22:17:27,[110301|0]
376,2026-02-26 22:17:27,[110322|0]
377,2026-02-26 22:17:27,[110358|0]
378,2026-02-26 22:17:27,[110401|0]
379,2026-02-26 22:17:27,[110319|0]
380,2026-02-26 22:17:27,[109990|0]
381,2026-02-26 22:17:27,[109863|0]
382,2026-02-26 22:17:27,[109879|0]
383,2026-02-26 22:17:27,[109934|0]
384,2026-02-26 22:17:27,[109943|0]
385,2026-02-26 22:17:27,[109953|0]
386,2026-02-26 22:17:27,[109925|0]
387,2026-02-26 22:17:27,[109927|0]
388,2026-02-26 22:17:27,[109915|0]
389,2026-02-26 22:17:27,[109923|0]
390,2026-02-26 22:17:27,[109960|0]
391,2026-02-26 22:17:27,[110011|0]
392,2026-02-26 22:17:27,[110005|0]
393,2026-02-26 22:17:27,[110044|0]
394,2026-02-26 22:17:27,[110054|0]
395,2026-02-26 22:17:27,[110069|0]
396,2026-02-26 22:17:27,[110088|0]
397,2026-02-26 22:17:27,[110113|0]
398,2026-02-26 22:17:28,[110110|0]
399,2026-02-26 22:17:28,[110171|0]
400,2026-02-26 22:17:28,[110207|0]
401,2026-02-26 22:17:28,[110064|0]
402,2026-02-26 22:17:28,[109794|0]
403,2026-02-26 22:17:28,[109679|0]
404,2026-02-26 22:17:28,[109693|0]
405,2026-02-26 22:17:28,[109757|0]
406,2026-02-26 22:17:28,[109772|0]
407,2026-02-26 22:17:28,[109793|0]
408,2026-02-26 22:17:28,[109766|0]
409,2026-02-26 22:17:28,[109719|0]
410,2026-02-26 22:17:28,[109712|0]
411,2026-02-26 22:17:28,[109752|0]
412,2026-02-26 22:17:28,[109781|0]
413,2026-02-26 22:17:28,[109805|0]
414,2026-02-26 22:17:28,[109835|0]
415,2026-02-26 22:17:28,[109839|0]
416,2026-02-26 22:17:28,[109830|0]
417,2026-02-26 22:17:28,[109859|0]
418,2026-02-26 22:17:28,[109877|0]
419,2026-02-26 22:17:28,[109912|0]
420,2026-02-26 22:17:28,[109949|0]
421,2026-02-26 22:17:28,[109968|0]
422,2026-02-26 22:17:29,[109741|0]
423,2026-02-26 22:17:29,[109535|0]
424,2026-02-26 22:17:29,[109473|0]
425,2026-02-26 22:17:29,[109523|0]
426,2026-02-26 22:17:29,[109551|0]
427,2026-02-26 22:17:29,[109533|0]
428,2026-02-26 22:17:29,[109558|0]
429,2026-02-26 22:17:29,[109549|0]
430,2026-02-26 22:17:29,[109519|0]
431,2026-02-26 22:17:29,[109531|0]
432,2026-02-26 22:17:29,[109568|0]
433,2026-02-26 22:17:29,[109589|0]
434,2026-02-26 22:17:29,[109637|0]
435,2026-02-26 22:17:29,[109676|0]
436,2026-02-26 22:17:29,[109696|0]
437,2026-02-26 22:17:29,[109711|0]
438,2026-02-26 22:17:29,[109734|0]
439,2026-02-26 22:17:29,[109739|0]
440,2026-02-26 22:17:29,[109785|0]
441,2026-02-26 22:17:29,[109830|0]
442,2026-02-26 22:17:29,[109861|0]
443,2026-02-26 22:17:29,[109919|0]
444,2026-02-26 22:17:29,[109869|0]
445,2026-02-26 22:17:29,[109574|0]
446,2026-02-26 22:17:29,[109392|0]
447,2026-02-26 22:17:29,[109396|0]
448,2026-02-26 22:17:30,[109396|0]
449,2026-02-26 22:17:30,[109446|0]
450,2026-02-26 22:17:30,[109428|0]
451,2026-02-26 22:17:30,[109433|0]
452,2026-02-26 22:17:30,[109444|0]
453,2026-02-26 22:17:30,[109457|0]
454,2026-02-26 22:17:30,[109450|0]
455,2026-02-26 22:17:30,[109462|0]
456,2026-02-26 22:17:30,[109494|0]
457,2026-02-26 22:17:30,[109532|0]
458,2026-02-26 22:17:30,[109550|0]
459,2026-02-26 22:17:30,[109582|0]
460,2026-02-26 22:17:30,[109612|0]
461,2026-02-26 22:17:30,[109637|0]
462,2026-02-26 22:17:30,[109660|0]
463,2026-02-26 22:17:30,[109691|0]
464,2026-02-26 22:17:30,[109703|0]
465,2026-02-26 22:17:30,[109756|0]
466,2026-02-26 22:17:30,[109780|0]
467,2026-02-26 22:17:30,[109820|0]
468,2026-02-26 22:17:30,[109845|0]
469,2026-02-26 22:17:30,[109891|0]
470,2026-02-26 22:17:30,[109824|0]
471,2026-02-26 22:17:30,[109593|0]
472,2026-02-26 22:17:31,[109412|0]
473,2026-02-26 22:17:31,[109419|0]
474,2026-02-26 22:17:31,[109471|0]
475,2026-02-26 22:17:31,[109474|0]
476,2026-02-26 22:17:31,[109441|0]
477,2026-02-26 22:17:31,[109515|0]
478,2026-02-26 22:17:31,[109494|0]
479,2026-02-26 22:17:31,[109501|0]
480,2026-02-26 22:17:31,[109503|0]
481,2026-02-26 22:17:31,[109540|0]
482,2026-02-26 22:17:31,[109547|0]
483,2026-02-26 22:17:31,[109600|0]
484,2026-02-26 22:17:31,[109626|0]
485,2026-02-26 22:17:31,[109646|0]
486,2026-02-26 22:17:31,[109667|0]
487,2026-02-26 22:17:31,[109684|0]
488,2026-02-26 22:17:31,[109698|0]
489,2026-02-26 22:17:31,[109738|0]
490,2026-02-26 22:17:31,[109777|0]
491,2026-02-26 22:17:31,[109814|0]
492,2026-02-26 22:17:31,[109840|0]
493,2026-02-26 22:17:31,[109890|0]
494,2026-02-26 22:17:31,[109902|0]
495,2026-02-26 22:17:31,[109854|0]
496,2026-02-26 22:17:31,[109603|0]
497,2026-02-26 22:17:32,[109483|0]
498,2026-02-26 22:17:32,[109520|0]
499,2026-02-26 22:17:32,[109583|0]
500,2026-02-26 22:17:32,[109569|0]
501,2026-02-26 22:17:32,[109623|0]
502,2026-02-26 22:17:32,[109633|0]
503,2026-02-26 22:17:32,[109615|0]
504,2026-02-26 22:17:32,[109617|0]
505,2026-02-26 22:17:32,[109640|0]
506,2026-02-26 22:17:32,[109648|0]
507,2026-02-26 22:17:32,[109730|0]
508,2026-02-26 22:17:32,[109748|0]
509,2026-02-26 22:17:32,[109779|0]
510,2026-02-26 22:17:32,[109789|0]
511,2026-02-26 22:17:32,[109815|0]
512,2026-02-26 22:17:32,[109810|0]
513,2026-02-26 22:17:32,[109878|0]
514,2026-02-26 22:17:32,[109911|0]
515,2026-02-26 22:17:32,[109947|0]
516,2026-02-26 22:17:32,[109977|0]
517,2026-02-26 22:17:32,[110018|0]
518,2026-02-26 22:17:32,[110041|0]
519,2026-02-26 22:17:32,[110013|0]
520,2026-02-26 22:17:32,[109732|0]
521,2026-02-26 22:17:32,[109581|0]
522,2026-02-26 22:17:32,[109598|0]
523,2026-02-26 22:17:33,[109643|0]
524,2026-02-26 22:17:33,[109644|0]
525,2026-02-26 22:17:33,[109653|0]
526,2026-02-26 22:17:33,[109683|0]
527,2026-02-26 22:17:33,[109685|0]
528,2026-02-26 22:17:33,[109686|0]
529,2026-02-26 22:17:33,[109681|0]
530,2026-02-26 22:17:33,[109714|0]
531,2026-02-26 22:17:33,[109768|0]
532,2026-02-26 22:17:33,[109814|0]
533,2026-02-26 22:17:33,[109852|0]
534,2026-02-26 22:17:33,[109866|0]
535,2026-02-26 22:17:33,[109890|0]
536,2026-02-26 22:17:33,[109901|0]
537,2026-02-26 22:17:33,[109943|0]
538,2026-02-26 22:17:33,[109972|0]
539,2026-02-26 22:17:33,[110021|0]
540,2026-02-26 22:17:33,[110060|0]
541,2026-02-26 22:17:33,[110101|0]
542,2026-02-26 22:17:33,[110126|0]
543,2026-02-26 22:17:33,[110166|0]
544,2026-02-26 22:17:33,[110212|0]
545,2026-02-26 22:17:33,[110255|0]
546,2026-02-26 22:17:33,[110134|0]
547,2026-02-26 22:17:34,[109808|0]
548,2026-02-26 22:17:34,[109695|0]
549,2026-02-26 22:17:34,[109738|0]
550,2026-02-26 22:17:34,[109803|0]
551,2026-02-26 22:17:34,[109802|0]
552,2026-02-26 22:17:34,[109793|0]
553,2026-02-26 22:17:34,[109808|0]
554,2026-02-26 22:17:34,[109818|0]
555,2026-02-26 22:17:34,[109823|0]
556,2026-02-26 22:17:34,[109834|0]
557,2026-02-26 22:17:34,[109876|0]
558,2026-02-26 22:17:34,[109921|0]
559,2026-02-26 22:17:34,[109939|0]
560,2026-02-26 22:17:34,[109978|0]
561,2026-02-26 22:17:34,[110012|0]
562,2026-02-26 22:17:34,[110023|0]
563,2026-02-26 22:17:34,[110050|0]
564,2026-02-26 22:17:34,[110086|0]
565,2026-02-26 22:17:34,[110085|0]
566,2026-02-26 22:17:34,[110138|0]
567,2026-02-26 22:17:34,[110138|0]
568,2026-02-26 22:17:34,[110175|0]
569,2026-02-26 22:17:34,[110208|0]
570,2026-02-26 22:17:34,[110256|0]
571,2026-02-26 22:17:34,[110292|0]
572,2026-02-26 22:17:35,[110309|0]
573,2026-02-26 22:17:35,[110165|0]
574,2026-02-26 22:17:35,[109891|0]
575,2026-02-26 22:17:35,[109806|0]
576,2026-02-26 22:17:35,[109842|0]
577,2026-02-26 22:17:35,[109916|0]
578,2026-02-26 22:17:35,[109914|0]
579,2026-02-26 22:17:35,[109951|0]
580,2026-02-26 22:17:35,[109955|0]
581,2026-02-26 22:17:35,[109933|0]
582,2026-02-26 22:17:35,[109945|0]
583,2026-02-26 22:17:35,[109965|0]
584,2026-02-26 22:17:35,[109964|0]
585,2026-02-26 22:17:35,[110036|0]
586,2026-02-26 22:17:35,[110081|0]
587,2026-02-26 22:17:35,[110115|0]
588,2026-02-26 22:17:35,[110129|0]
589,2026-02-26 22:17:35,[110147|0]
590,2026-02-26 22:17:35,[110143|0]
591,2026-02-26 22:17:35,[110197|0]
592,2026-02-26 22:17:35,[110237|0]
593,2026-02-26 22:17:35,[110265|0]
594,2026-02-26 22:17:35,[110313|0]
595,2026-02-26 22:17:35,[110356|0]
596,2026-02-26 22:17:35,[110145|0]
597,2026-02-26 22:17:35,[109920|0]
598,2026-02-26 22:17:36,[109853|0]
599,2026-02-26 22:17:36,[109912|0]
600,2026-02-26 22:17:36,[109983|0]
601,2026-02-26 22:17:36,[110019|0]
602,2026-02-26 22:17:36,[110028|0]
603,2026-02-26 22:17:36,[110029|0]
604,2026-02-26 22:17:36,[109998|0]
605,2026-02-26 22:17:36,[110000|0]
606,2026-02-26 22:17:36,[110037|0]
607,2026-02-26 22:17:36,[110093|0]
608,2026-02-26 22:17:36,[110115|0]
609,2026-02-26 22:17:36,[110170|0]
610,2026-02-26 22:17:36,[110197|0]
611,2026-02-26 22:17:36,[110211|0]
612,2026-02-26 22:17:36,[110227|0]
613,2026-02-26 22:17:36,[110254|0]
614,2026-02-26 22:17:36,[110249|0]
615,2026-02-26 22:17:36,[110329|0]
616,2026-02-26 22:17:36,[110368|0]
617,2026-02-26 22:17:36,[110195|0]
618,2026-02-26 22:17:36,[109915|0]
619,2026-02-26 22:17:36,[109813|0]
620,2026-02-26 22:17:37,[109806|0]
621,2026-02-26 22:17:37,[109895|0]
622,2026-02-26 22:17:37,[109907|0]
623,2026-02-26 22:17:37,[109924|0]
624,2026-02-26 22:17:37,[109930|0]
625,2026-02-26 22:17:37,[109919|0]
626,2026-02-26 22:17:37,[109871|0]
627,2026-02-26 22:17:37,[109936|0]
628,2026-02-26 22:17:37,[109965|0]
629,2026-02-26 22:17:37,[110014|0]
630,2026-02-26 22:17:37,[110079|0]
631,2026-02-26 22:17:37,[110093|0]
632,2026-02-26 22:17:37,[110087|0]
633,2026-02-26 22:17:37,[110126|0]
634,2026-02-26 22:17:37,[110150|0]
635,2026-02-26 22:17:37,[110174|0]
636,2026-02-26 22:17:37,[110243|0]
637,2026-02-26 22:17:37,[110236|0]
638,2026-02-26 22:17:37,[109969|0]
639,2026-02-26 22:17:37,[109737|0]
640,2026-02-26 22:17:37,[109682|0]
641,2026-02-26 22:17:37,[109734|0]
642,2026-02-26 22:17:37,[109753|0]
643,2026-02-26 22:17:37,[109736|0]
644,2026-02-26 22:17:37,[109737|0]
645,2026-02-26 22:17:37,[109760|0]
646,2026-02-26 22:17:37,[109737|0]
647,2026-02-26 22:17:38,[109752|0]
648,2026-02-26 22:17:38,[109784|0]
649,2026-02-26 22:17:38,[109809|0]
650,2026-02-26 22:17:38,[109830|0]
651,2026-02-26 22:17:38,[109902|0]
652,2026-02-26 22:17:38,[109922|0]
653,2026-02-26 22:17:38,[109933|0]
654,2026-02-26 22:17:38,[109967|0]
655,2026-02-26 22:17:38,[109977|0]
656,2026-02-26 22:17:38,[109990|0]
657,2026-02-26 22:17:38,[110048|0]
658,2026-02-26 22:17:38,[110099|0]
659,2026-02-26 22:17:38,[110070|0]
660,2026-02-26 22:17:38,[109802|0]
661,2026-02-26 22:17:38,[109594|0]
662,2026-02-26 22:17:38,[109562|0]
663,2026-02-26 22:17:38,[109640|0]
664,2026-02-26 22:17:38,[109667|0]
665,2026-02-26 22:17:38,[109677|0]
666,2026-02-26 22:17:38,[109705|0]
667,2026-02-26 22:17:38,[109659|0]
668,2026-02-26 22:17:38,[109639|0]
669,2026-02-26 22:17:38,[109667|0]
670,2026-02-26 22:17:38,[109702|0]
671,2026-02-26 22:17:38,[109746|0]
672,2026-02-26 22:17:38,[109788|0]
673,2026-02-26 22:17:39,[109806|0]
674,2026-02-26 22:17:39,[109826|0]
675,2026-02-26 22:17:39,[109859|0]
676,2026-02-26 22:17:39,[109874|0]
677,2026-02-26 22:17:39,[109905|0]
678,2026-02-26 22:17:39,[109947|0]
679,2026-02-26 22:17:39,[109973|0]
680,2026-02-26 22:17:39,[109822|0]
681,2026-02-26 22:17:39,[109583|0]
682,2026-02-26 22:17:39,[109485|0]
683,2026-02-26 22:17:39,[109523|0]
684,2026-02-26 22:17:39,[109569|0]
685,2026-02-26 22:17:39,[109577|0]
686,2026-02-26 22:17:39,[109627|0]
687,2026-02-26 22:17:39,[109627|0]
688,2026-02-26 22:17:39,[109607|0]
689,2026-02-26 22:17:39,[109588|0]
690,2026-02-26 22:17:39,[109604|0]
691,2026-02-26 22:17:39,[109634|0]
692,2026-02-26 22:17:39,[109658|0]
693,2026-02-26 22:17:39,[109726|0]
694,2026-02-26 22:17:39,[109763|0]
695,2026-02-26 22:17:39,[109790|0]
696,2026-02-26 22:17:39,[109810|0]
697,2026-02-26 22:17:40,[109834|0]
698,2026-02-26 22:17:40,[109843|0]
699,2026-02-26 22:17:40,[109916|0]
700,2026-02-26 22:17:40,[109895|0]
701,2026-02-26 22:17:40,[109643|0]
702,2026-02-26 22:17:40,[109416|0]
703,2026-02-26 22:17:40,[109383|0]
704,2026-02-26 22:17:40,[109401|0]
705,2026-02-26 22:17:40,[109430|0]
706,2026-02-26 22:17:40,[109434|0]
707,2026-02-26 22:17:40,[109475|0]
708,2026-02-26 22:17:40,[109459|0]
709,2026-02-26 22:17:40,[109449|0]
710,2026-02-26 22:17:40,[109431|0]
711,2026-02-26 22:17:40,[109491|0]
712,2026-02-26 22:17:40,[109541|0]
713,2026-02-26 22:17:40,[109600|0]
714,2026-02-26 22:17:40,[109642|0]
715,2026-02-26 22:17:40,[109679|0]
716,2026-02-26 22:17:40,[109665|0]
717,2026-02-26 22:17:40,[109728|0]
718,2026-02-26 22:17:40,[109771|0]
719,2026-02-26 22:17:40,[109806|0]
720,2026-02-26 22:17:40,[109863|0]
721,2026-02-26 22:17:40,[109906|0]
722,2026-02-26 22:17:41,[109934|0]
723,2026-02-26 22:17:41,[110004|0]
724,2026-02-26 22:17:41,[109934|0]
725,2026-02-26 22:17:41,[109570|0]
726,2026-02-26 22:17:41,[109368|0]
727,2026-02-26 22:17:41,[109377|0]
728,2026-02-26 22:17:41,[109403|0]
729,2026-02-26 22:17:41,[109403|0]
730,2026-02-26 22:17:41,[109390|0]
731,2026-02-26 22:17:41,[109426|0]
732,2026-02-26 22:17:41,[109409|0]
733,2026-02-26 22:17:41,[109416|0]
734,2026-02-26 22:17:41,[109400|0]
735,2026-02-26 22:17:41,[109467|0]
736,2026-02-26 22:17:41,[109517|0]
737,2026-02-26 22:17:41,[109570|0]
738,2026-02-26 22:17:41,[109603|0]
739,2026-02-26 22:17:41,[109650|0]
740,2026-02-26 22:17:41,[109636|0]
741,2026-02-26 22:17:41,[109700|0]
742,2026-02-26 22:17:41,[109739|0]
743,2026-02-26 22:17:41,[109783|0]
744,2026-02-26 22:17:41,[109829|0]
745,2026-02-26 22:17:41,[109883|0]
746,2026-02-26 22:17:41,[109872|0]
747,2026-02-26 22:17:41,[109938|0]
748,2026-02-26 22:17:42,[109987|0]
749,2026-02-26 22:17:42,[110035|0]
750,2026-02-26 22:17:42,[109926|0]
751,2026-02-26 22:17:42,[109563|0]
752,2026-02-26 22:17:42,[109369|0]
753,2026-02-26 22:17:42,[109395|0]
754,2026-02-26 22:17:42,[109459|0]
755,2026-02-26 22:17:42,[109463|0]
756,2026-02-26 22:17:42,[109455|0]
757,2026-02-26 22:17:42,[109481|0]
758,2026-02-26 22:17:42,[109445|0]
759,2026-02-26 22:17:42,[109460|0]
760,2026-02-26 22:17:42,[109469|0]
761,2026-02-26 22:17:42,[109522|0]
762,2026-02-26 22:17:42,[109573|0]
763,2026-02-26 22:17:42,[109609|0]
764,2026-02-26 22:17:42,[109638|0]
765,2026-02-26 22:17:42,[109683|0]
766,2026-02-26 22:17:42,[109706|0]
767,2026-02-26 22:17:42,[109738|0]
768,2026-02-26 22:17:42,[109775|0]
769,2026-02-26 22:17:42,[109818|0]
770,2026-02-26 22:17:42,[109845|0]
771,2026-02-26 22:17:42,[109914|0]
772,2026-02-26 22:17:42,[109948|0]
773,2026-02-26 22:17:43,[109997|0]
774,2026-02-26 22:17:43,[110045|0]
775,2026-02-26 22:17:43,[109858|0]
776,2026-02-26 22:17:43,[109544|0]
777,2026-02-26 22:17:43,[109451|0]
778,2026-02-26 22:17:43,[109496|0]
779,2026-02-26 22:17:43,[109581|0]
780,2026-02-26 22:17:43,[109655|0]
781,2026-02-26 22:17:43,[109669|0]
782,2026-02-26 22:17:43,[109644|0]
783,2026-02-26 22:17:43,[109609|0]
784,2026-02-26 22:17:43,[109617|0]
785,2026-02-26 22:17:43,[109669|0]
786,2026-02-26 22:17:43,[109725|0]
787,2026-02-26 22:17:43,[109785|0]
788,2026-02-26 22:17:43,[109824|0]
789,2026-02-26 22:17:43,[109864|0]
790,2026-02-26 22:17:43,[109888|0]
791,2026-02-26 22:17:43,[109912|0]
792,2026-02-26 22:17:43,[109943|0]
793,2026-02-26 22:17:43,[109962|0]
794,2026-02-26 22:17:43,[110018|0]
795,2026-02-26 22:17:43,[110066|0]
796,2026-02-26 22:17:43,[110126|0]
797,2026-02-26 22:17:44,[110137|0]
798,2026-02-26 22:17:44,[109822|0]
799,2026-02-26 22:17:44,[109530|0]
800,2026-02-26 22:17:44,[109475|0]
801,2026-02-26 22:17:44,[109556|0]
802,2026-02-26 22:17:44,[109612|0]
803,2026-02-26 22:17:44,[109624|0]
804,2026-02-26 22:17:44,[109647|0]
805,2026-02-26 22:17:44,[109624|0]
806,2026-02-26 22:17:44,[109624|0]
807,2026-02-26 22:17:44,[109604|0]
808,2026-02-26 22:17:44,[109618|0]
809,2026-02-26 22:17:44,[109667|0]
810,2026-02-26 22:17:44,[109738|0]
811,2026-02-26 22:17:44,[109795|0]
812,2026-02-26 22:17:44,[109830|0]
813,2026-02-26 22:17:44,[109871|0]
814,2026-02-26 22:17:44,[109886|0]
815,2026-02-26 22:17:44,[109926|0]
816,2026-02-26 22:17:44,[109952|0]
817,2026-02-26 22:17:44,[110004|0]
818,2026-02-26 22:17:44,[110013|0]
819,2026-02-26 22:17:44,[110076|0]
820,2026-02-26 22:17:44,[110139|0]
821,2026-02-26 22:17:44,[110092|0]
822,2026-02-26 22:17:44,[109736|0]
823,2026-02-26 22:17:45,[109498|0]
824,2026-02-26 22:17:45,[109436|0]
825,2026-02-26 22:17:45,[109539|0]
826,2026-02-26 22:17:45,[109575|0]
827,2026-02-26 22:17:45,[109574|0]
828,2026-02-26 22:17:45,[109602|0]
829,2026-02-26 22:17:45,[109576|0]
830,2026-02-26 22:17:45,[109522|0]
831,2026-02-26 22:17:45,[109570|0]
832,2026-02-26 22:17:45,[109611|0]
833,2026-02-26 22:17:45,[109670|0]
834,2026-02-26 22:17:45,[109723|0]
835,2026-02-26 22:17:45,[109768|0]
836,2026-02-26 22:17:45,[109755|0]
837,2026-02-26 22:17:45,[109812|0]
838,2026-02-26 22:17:45,[109829|0]
839,2026-02-26 22:17:45,[109865|0]
840,2026-02-26 22:17:45,[109935|0]
841,2026-02-26 22:17:45,[109960|0]
842,2026-02-26 22:17:45,[109978|0]
843,2026-02-26 22:17:45,[110036|0]
844,2026-02-26 22:17:45,[110077|0]
845,2026-02-26 22:17:45,[109852|0]
846,2026-02-26 22:17:45,[109499|0]
847,2026-02-26 22:17:45,[109378|0]
848,2026-02-26 22:17:46,[109397|0]
849,2026-02-26 22:17:46,[109477|0]
850,2026-02-26 22:17:46,[109510|0]
851,2026-02-26 22:17:46,[109524|0]
852,2026-02-26 22:17:46,[109515|0]
853,2026-02-26 22:17:46,[109480|0]
854,2026-02-26 22:17:46,[109450|0]
855,2026-02-26 22:17:46,[109508|0]
856,2026-02-26 22:17:46,[109572|0]
857,2026-02-26 22:17:46,[109630|0]
858,2026-02-26 22:17:46,[109672|0]
859,2026-02-26 22:17:46,[109700|0]
860,2026-02-26 22:17:46,[109687|0]
861,2026-02-26 22:17:46,[109736|0]
862,2026-02-26 22:17:46,[109780|0]
863,2026-02-26 22:17:46,[109808|0]
864,2026-02-26 22:17:46,[109841|0]
865,2026-02-26 22:17:46,[109900|0]
866,2026-02-26 22:17:46,[109912|0]
867,2026-02-26 22:17:46,[109833|0]
868,2026-02-26 22:17:46,[109498|0]
869,2026-02-26 22:17:46,[109336|0]
870,2026-02-26 22:17:46,[109367|0]
871,2026-02-26 22:17:46,[109444|0]
872,2026-02-26 22:17:47,[109480|0]
873,2026-02-26 22:17:47,[109546|0]
874,2026-02-26 22:17:47,[109534|0]
875,2026-02-26 22:17:47,[109496|0]
876,2026-02-26 22:17:47,[109490|0]
877,2026-02-26 22:17:47,[109535|0]
878,2026-02-26 22:17:47,[109573|0]
879,2026-02-26 22:17:47,[109670|0]
880,2026-02-26 22:17:47,[109727|0]
881,2026-02-26 22:17:47,[109764|0]
882,2026-02-26 22:17:47,[109774|0]
883,2026-02-26 22:17:47,[109778|0]
884,2026-02-26 22:17:47,[109805|0]
885,2026-02-26 22:17:47,[109868|0]
886,2026-02-26 22:17:47,[109912|0]
887,2026-02-26 22:17:47,[109963|0]
888,2026-02-26 22:17:47,[110017|0]
889,2026-02-26 22:17:47,[109962|0]
890,2026-02-26 22:17:47,[109592|0]
891,2026-02-26 22:17:47,[109347|0]
892,2026-02-26 22:17:47,[109334|0]
893,2026-02-26 22:17:47,[109394|0]
894,2026-02-26 22:17:47,[109435|0]
895,2026-02-26 22:17:47,[109436|0]
896,2026-02-26 22:17:47,[109432|0]
897,2026-02-26 22:17:47,[109440|0]
898,2026-02-26 22:17:48,[109413|0]
899,2026-02-26 22:17:48,[109457|0]
900,2026-02-26 22:17:48,[109507|0]
901,2026-02-26 22:17:48,[109543|0]
902,2026-02-26 22:17:48,[109604|0]
903,2026-02-26 22:17:48,[109648|0]
904,2026-02-26 22:17:48,[109679|0]
905,2026-02-26 22:17:48,[109698|0]
906,2026-02-26 22:17:48,[109730|0]
907,2026-02-26 22:17:48,[109751|0]
908,2026-02-26 22:17:48,[109779|0]
909,2026-02-26 22:17:48,[109839|0]
910,2026-02-26 22:17:48,[109891|0]
911,2026-02-26 22:17:48,[109919|0]
912,2026-02-26 22:17:48,[109691|0]
913,2026-02-26 22:17:48,[109352|0]
914,2026-02-26 22:17:48,[109259|0]
915,2026-02-26 22:17:48,[109317|0]
916,2026-02-26 22:17:48,[109383|0]
917,2026-02-26 22:17:48,[109421|0]
918,2026-02-26 22:17:48,[109460|0]
919,2026-02-26 22:17:48,[109399|0]
920,2026-02-26 22:17:48,[109376|0]
921,2026-02-26 22:17:48,[109399|0]
922,2026-02-26 22:17:49,[109451|0]
923,2026-02-26 22:17:49,[109505|0]
924,2026-02-26 22:17:49,[109573|0]
925,2026-02-26 22:17:49,[109573|0]
926,2026-02-26 22:17:49,[109584|0]
927,2026-02-26 22:17:49,[109616|0]
928,2026-02-26 22:17:49,[109658|0]
929,2026-02-26 22:17:49,[109703|0]
930,2026-02-26 22:17:49,[109742|0]
931,2026-02-26 22:17:49,[109762|0]
932,2026-02-26 22:17:49,[109796|0]
933,2026-02-26 22:17:49,[109874|0]
934,2026-02-26 22:17:49,[109821|0]
935,2026-02-26 22:17:49,[109473|0]
936,2026-02-26 22:17:49,[109238|0]
937,2026-02-26 22:17:49,[109211|0]
938,2026-02-26 22:17:49,[109261|0]
939,2026-02-26 22:17:49,[109307|0]
940,2026-02-26 22:17:49,[109317|0]
941,2026-02-26 22:17:49,[109340|0]
942,2026-02-26 22:17:49,[109307|0]
943,2026-02-26 22:17:49,[109293|0]
944,2026-02-26 22:17:49,[109279|0]
945,2026-02-26 22:17:49,[109348|0]
946,2026-02-26 22:17:49,[109395|0]
947,2026-02-26 22:17:50,[109467|0]
948,2026-02-26 22:17:50,[109534|0]
949,2026-02-26 22:17:50,[109561|0]
950,2026-02-26 22:17:50,[109539|0]
951,2026-02-26 22:17:50,[109570|0]
952,2026-02-26 22:17:50,[109599|0]
953,2026-02-26 22:17:50,[109649|0]
954,2026-02-26 22:17:50,[109694|0]
955,2026-02-26 22:17:50,[109737|0]
956,2026-02-26 22:17:50,[109606|0]
957,2026-02-26 22:17:50,[109273|0]
958,2026-02-26 22:17:50,[109070|0]
959,2026-02-26 22:17:50,[109065|0]
960,2026-02-26 22:17:50,[109127|0]
961,2026-02-26 22:17:50,[109133|0]
962,2026-02-26 22:17:50,[109124|0]
963,2026-02-26 22:17:50,[109142|0]
964,2026-02-26 22:17:50,[109133|0]
965,2026-02-26 22:17:50,[109129|0]
966,2026-02-26 22:17:50,[109149|0]
967,2026-02-26 22:17:50,[109198|0]
968,2026-02-26 22:17:50,[109228|0]
969,2026-02-26 22:17:50,[109306|0]
970,2026-02-26 22:17:50,[109355|0]
971,2026-02-26 22:17:50,[109380|0]
972,2026-02-26 22:17:50,[109385|0]
973,2026-02-26 22:17:51,[109403|0]
974,2026-02-26 22:17:51,[109413|0]
975,2026-02-26 22:17:51,[109501|0]
976,2026-02-26 22:17:51,[109523|0]
977,2026-02-26 22:17:51,[109254|0]
978,2026-02-26 22:17:51,[108980|0]
979,2026-02-26 22:17:51,[108912|0]
980,2026-02-26 22:17:51,[108936|0]
981,2026-02-26 22:17:51,[109015|0]
982,2026-02-26 22:17:51,[109037|0]
983,2026-02-26 22:17:51,[109070|0]
984,2026-02-26 22:17:51,[109055|0]
985,2026-02-26 22:17:51,[109034|0]
986,2026-02-26 22:17:51,[109012|0]
987,2026-02-26 22:17:51,[109071|0]
988,2026-02-26 22:17:51,[109133|0]
989,2026-02-26 22:17:51,[109218|0]
990,2026-02-26 22:17:51,[109272|0]
991,2026-02-26 22:17:51,[109284|0]
992,2026-02-26 22:17:51,[109265|0]
993,2026-02-26 22:17:51,[109293|0]
994,2026-02-26 22:17:51,[109351|0]
995,2026-02-26 22:17:51,[109409|0]
996,2026-02-26 22:17:51,[109423|0]
997,2026-02-26 22:17:52,[109183|0]
998,2026-02-26 22:17:52,[108891|0]
999,2026-02-26 22:17:52,[108827|0]
1000,2026-02-26 22:17:52,[108882|0]
1001,2026-02-26 22:17:52,[108957|0]
1002,2026-02-26 22:17:52,[109015|0]
1003,2026-02-26 22:17:52,[109029|0]
1004,2026-02-26 22:17:52,[108961|0]
1005,2026-02-26 22:17:52,[108953|0]
1006,2026-02-26 22:17:52,[108992|0]
1007,2026-02-26 22:17:52,[109060|0]
1008,2026-02-26 22:17:52,[109125|0]
1009,2026-02-26 22:17:52,[109160|0]
1010,2026-02-26 22:17:52,[109191|0]
1011,2026-02-26 22:17:52,[109237|0]
1012,2026-02-26 22:17:52,[109270|0]
1013,2026-02-26 22:17:52,[109301|0]
1014,2026-02-26 22:17:52,[109329|0]
1015,2026-02-26 22:17:52,[109368|0]
1016,2026-02-26 22:17:52,[109408|0]
1017,2026-02-26 22:17:52,[109259|0]
1018,2026-02-26 22:17:52,[108893|0]
1019,2026-02-26 22:17:52,[108762|0]
1020,2026-02-26 22:17:52,[108805|0]
1021,2026-02-26 22:17:52,[108840|0]
1022,2026-02-26 22:17:53,[108847|0]
1023,2026-02-26 22:17:53,[108874|0]
1024,2026-02-26 22:17:53,[108889|0]
1025,2026-02-26 22:17:53,[108878|0]
1026,2026-02-26 22:17:53,[108880|0]
1027,2026-02-26 22:17:53,[108928|0]
1028,2026-02-26 22:17:53,[109009|0]
1029,2026-02-26 22:17:53,[109084|0]
1030,2026-02-26 22:17:53,[109117|0]
1031,2026-02-26 22:17:53,[109146|0]
1032,2026-02-26 22:17:53,[109170|0]
1033,2026-02-26 22:17:53,[109181|0]
1034,2026-02-26 22:17:53,[109247|0]
1035,2026-02-26 22:17:53,[109311|0]
1036,2026-02-26 22:17:53,[109337|0]
1037,2026-02-26 22:17:53,[109382|0]
1038,2026-02-26 22:17:53,[109382|0]
1039,2026-02-26 22:17:53,[109037|0]
1040,2026-02-26 22:17:53,[108719|0]
1041,2026-02-26 22:17:53,[108637|0]
1042,2026-02-26 22:17:53,[108687|0]
1043,2026-02-26 22:17:53,[108717|0]
1044,2026-02-26 22:17:53,[108713|0]
1045,2026-02-26 22:17:53,[108713|0]
1046,2026-02-26 22:17:53,[108732|0]
1047,2026-02-26 22:17:53,[108719|0]
1048,2026-02-26 22:17:54,[108739|0]
1049,2026-02-26 22:17:54,[108784|0]
1050,2026-02-26 22:17:54,[108843|0]
1051,2026-02-26 22:17:54,[108915|0]
1052,2026-02-26 22:17:54,[108961|0]
1053,2026-02-26 22:17:54,[109034|0]
1054,2026-02-26 22:17:54,[109051|0]
1055,2026-02-26 22:17:54,[109047|0]
1056,2026-02-26 22:17:54,[109086|0]
1057,2026-02-26 22:17:54,[109150|0]
1058,2026-02-26 22:17:54,[109222|0]
1059,2026-02-26 22:17:54,[109335|0]
1060,2026-02-26 22:17:54,[109392|0]
1061,2026-02-26 22:17:54,[109414|0]
1062,2026-02-26 22:17:54,[109430|0]
1063,2026-02-26 22:17:54,[109249|0]
1064,2026-02-26 22:17:54,[108876|0]
1065,2026-02-26 22:17:54,[108794|0]
1066,2026-02-26 22:17:54,[108861|0]
1067,2026-02-26 22:17:54,[108962|0]
1068,2026-02-26 22:17:54,[109027|0]
1069,2026-02-26 22:17:54,[109077|0]
1070,2026-02-26 22:17:54,[109048|0]
1071,2026-02-26 22:17:54,[109057|0]
1072,2026-02-26 22:17:55,[109068|0]
1073,2026-02-26 22:17:55,[109122|0]
1074,2026-02-26 22:17:55,[109192|0]
1075,2026-02-26 22:17:55,[109243|0]
1076,2026-02-26 22:17:55,[109252|0]
1077,2026-02-26 22:17:55,[109312|0]
1078,2026-02-26 22:17:55,[109331|0]
1079,2026-02-26 22:17:55,[109363|0]
1080,2026-02-26 22:17:55,[109406|0]
1081,2026-02-26 22:17:55,[109434|0]
1082,2026-02-26 22:17:55,[109459|0]
1083,2026-02-26 22:17:55,[109533|0]
1084,2026-02-26 22:17:55,[109589|0]
1085,2026-02-26 22:17:55,[109433|0]
1086,2026-02-26 22:17:55,[109089|0]
1087,2026-02-26 22:17:55,[108969|0]
1088,2026-02-26 22:17:55,[109004|0]
1089,2026-02-26 22:17:55,[109117|0]
1090,2026-02-26 22:17:55,[109170|0]
1091,2026-02-26 22:17:55,[109218|0]
1092,2026-02-26 22:17:55,[109201|0]
1093,2026-02-26 22:17:55,[109158|0]
1094,2026-02-26 22:17:55,[109141|0]
1095,2026-02-26 22:17:55,[109217|0]
1096,2026-02-26 22:17:55,[109293|0]
1097,2026-02-26 22:17:56,[109352|0]
1098,2026-02-26 22:17:56,[109392|0]
1099,2026-02-26 22:17:56,[109439|0]
1100,2026-02-26 22:17:56,[109417|0]
1101,2026-02-26 22:17:56,[109472|0]
1102,2026-02-26 22:17:56,[109507|0]
1103,2026-02-26 22:17:56,[109553|0]
1104,2026-02-26 22:17:56,[109598|0]
1105,2026-02-26 22:17:56,[109660|0]
1106,2026-02-26 22:17:56,[109665|0]
