Packet_Number,Timestamp,Data
1,2026-02-26 22:18:07,[109416|0]
2,2026-02-26 22:18:07,[109448|0]
3,2026-02-26 22:18:07,[109499|0]
4,2026-02-26 22:18:07,[109501|0]
5,2026-02-26 22:18:07,[109481|0]
6,2026-02-26 22:18:07,[109496|0]
7,2026-02-26 22:18:07,[109511|0]
8,2026-02-26 22:18:07,[109554|0]
9,2026-02-26 22:18:07,[109633|0]
10,2026-02-26 22:18:07,[109684|0]
11,2026-02-26 22:18:07,[109698|0]
12,2026-02-26 22:18:07,[109723|0]
13,2026-02-26 22:18:07,[109747|0]
14,2026-02-26 22:18:07,[109777|0]
15,2026-02-26 22:18:07,[109809|0]
16,2026-02-26 22:18:07,[109836|0]
17,2026-02-26 22:18:07,[109867|0]
18,2026-02-26 22:18:07,[109877|0]
19,2026-02-26 22:18:07,[109589|0]
20,2026-02-26 22:18:07,[109410|0]
21,2026-02-26 22:18:07,[109403|0]
22,2026-02-26 22:18:07,[109497|0]
23,2026-02-26 22:18:08,[109587|0]
24,2026-02-26 22:18:08,[109663|0]
25,2026-02-26 22:18:08,[109657|0]
26,2026-02-26 22:18:08,[109608|0]
27,2026-02-26 22:18:08,[109576|0]
28,2026-02-26 22:18:08,[109597|0]
29,2026-02-26 22:18:08,[109662|0]
30,2026-02-26 22:18:08,[109705|0]
31,2026-02-26 22:18:08,[109737|0]
32,2026-02-26 22:18:08,[109775|0]
33,2026-02-26 22:18:08,[109815|0]
34,2026-02-26 22:18:08,[109828|0]
35,2026-02-26 22:18:08,[109852|0]
36,2026-02-26 22:18:08,[109852|0]
37,2026-02-26 22:18:08,[109874|0]
38,2026-02-26 22:18:08,[109892|0]
39,2026-02-26 22:18:08,[109774|0]
40,2026-02-26 22:18:08,[109534|0]
41,2026-02-26 22:18:08,[109447|0]
42,2026-02-26 22:18:08,[109524|0]
43,2026-02-26 22:18:08,[109632|0]
44,2026-02-26 22:18:08,[109657|0]
45,2026-02-26 22:18:08,[109709|0]
46,2026-02-26 22:18:08,[109688|0]
47,2026-02-26 22:18:08,[109663|0]
48,2026-02-26 22:18:09,[109673|0]
49,2026-02-26 22:18:09,[109719|0]
50,2026-02-26 22:18:09,[109761|0]
51,2026-02-26 22:18:09,[109843|0]
52,2026-02-26 22:18:09,[109893|0]
53,2026-02-26 22:18:09,[109928|0]
54,2026-02-26 22:18:09,[109955|0]
55,2026-02-26 22:18:09,[109993|0]
56,2026-02-26 22:18:09,[109980|0]
57,2026-02-26 22:18:09,[110048|0]
58,2026-02-26 22:18:09,[110100|0]
59,2026-02-26 22:18:09,[110074|0]
60,2026-02-26 22:18:09,[109785|0]
61,2026-02-26 22:18:09,[109620|0]
62,2026-02-26 22:18:09,[109616|0]
63,2026-02-26 22:18:09,[109748|0]
64,2026-02-26 22:18:09,[109813|0]
65,2026-02-26 22:18:09,[109841|0]
66,2026-02-26 22:18:09,[109859|0]
67,2026-02-26 22:18:09,[109833|0]
68,2026-02-26 22:18:09,[109797|0]
69,2026-02-26 22:18:09,[109850|0]
70,2026-02-26 22:18:09,[109921|0]
71,2026-02-26 22:18:09,[109965|0]
72,2026-02-26 22:18:09,[110012|0]
73,2026-02-26 22:18:10,[110051|0]
74,2026-02-26 22:18:10,[110056|0]
75,2026-02-26 22:18:10,[110090|0]
76,2026-02-26 22:18:10,[110120|0]
77,2026-02-26 22:18:10,[110157|0]
78,2026-02-26 22:18:10,[110214|0]
79,2026-02-26 22:18:10,[110244|0]
80,2026-02-26 22:18:10,[109998|0]
81,2026-02-26 22:18:10,[109803|0]
82,2026-02-26 22:18:10,[109773|0]
83,2026-02-26 22:18:10,[109862|0]
84,2026-02-26 22:18:10,[109926|0]
85,2026-02-26 22:18:10,[109952|0]
86,2026-02-26 22:18:10,[109932|0]
87,2026-02-26 22:18:10,[109939|0]
88,2026-02-26 22:18:10,[109928|0]
89,2026-02-26 22:18:10,[109950|0]
90,2026-02-26 22:18:10,[109990|0]
91,2026-02-26 22:18:10,[110033|0]
92,2026-02-26 22:18:10,[110045|0]
93,2026-02-26 22:18:10,[110103|0]
94,2026-02-26 22:18:10,[110130|0]
95,2026-02-26 22:18:10,[110151|0]
96,2026-02-26 22:18:10,[110164|0]
97,2026-02-26 22:18:10,[110198|0]
98,2026-02-26 22:18:11,[110199|0]
99,2026-02-26 22:18:11,[110150|0]
100,2026-02-26 22:18:11,[109915|0]
101,2026-02-26 22:18:11,[109838|0]
102,2026-02-26 22:18:11,[109860|0]
103,2026-02-26 22:18:11,[109936|0]
104,2026-02-26 22:18:11,[109953|0]
105,2026-02-26 22:18:11,[109992|0]
106,2026-02-26 22:18:11,[109971|0]
107,2026-02-26 22:18:11,[109933|0]
108,2026-02-26 22:18:11,[109940|0]
109,2026-02-26 22:18:11,[109982|0]
110,2026-02-26 22:18:11,[110006|0]
111,2026-02-26 22:18:11,[110062|0]
112,2026-02-26 22:18:11,[110089|0]
113,2026-02-26 22:18:11,[110120|0]
114,2026-02-26 22:18:11,[110135|0]
115,2026-02-26 22:18:11,[110132|0]
116,2026-02-26 22:18:11,[110145|0]
117,2026-02-26 22:18:11,[110221|0]
118,2026-02-26 22:18:11,[110202|0]
119,2026-02-26 22:18:11,[109956|0]
120,2026-02-26 22:18:11,[109753|0]
121,2026-02-26 22:18:11,[109706|0]
122,2026-02-26 22:18:11,[109764|0]
123,2026-02-26 22:18:11,[109804|0]
124,2026-02-26 22:18:12,[109813|0]
125,2026-02-26 22:18:12,[109821|0]
126,2026-02-26 22:18:12,[109796|0]
127,2026-02-26 22:18:12,[109775|0]
128,2026-02-26 22:18:12,[109757|0]
129,2026-02-26 22:18:12,[109815|0]
130,2026-02-26 22:18:12,[109854|0]
131,2026-02-26 22:18:12,[109913|0]
132,2026-02-26 22:18:12,[109929|0]
133,2026-02-26 22:18:12,[109936|0]
134,2026-02-26 22:18:12,[109952|0]
135,2026-02-26 22:18:12,[109965|0]
136,2026-02-26 22:18:12,[109985|0]
137,2026-02-26 22:18:12,[110029|0]
138,2026-02-26 22:18:12,[110018|0]
139,2026-02-26 22:18:12,[109767|0]
140,2026-02-26 22:18:12,[109538|0]
141,2026-02-26 22:18:12,[109508|0]
142,2026-02-26 22:18:12,[109558|0]
143,2026-02-26 22:18:12,[109588|0]
144,2026-02-26 22:18:12,[109592|0]
145,2026-02-26 22:18:12,[109575|0]
146,2026-02-26 22:18:12,[109552|0]
147,2026-02-26 22:18:12,[109552|0]
148,2026-02-26 22:18:12,[109561|0]
149,2026-02-26 22:18:13,[109598|0]
150,2026-02-26 22:18:13,[109632|0]
151,2026-02-26 22:18:13,[109643|0]
152,2026-02-26 22:18:13,[109670|0]
153,2026-02-26 22:18:13,[109702|0]
154,2026-02-26 22:18:13,[109725|0]
155,2026-02-26 22:18:13,[109741|0]
156,2026-02-26 22:18:13,[109768|0]
157,2026-02-26 22:18:13,[109768|0]
158,2026-02-26 22:18:13,[109789|0]
159,2026-02-26 22:18:13,[109795|0]
160,2026-02-26 22:18:13,[109584|0]
161,2026-02-26 22:18:13,[109385|0]
162,2026-02-26 22:18:13,[109372|0]
163,2026-02-26 22:18:13,[109419|0]
164,2026-02-26 22:18:13,[109430|0]
165,2026-02-26 22:18:13,[109493|0]
166,2026-02-26 22:18:13,[109477|0]
167,2026-02-26 22:18:13,[109436|0]
168,2026-02-26 22:18:13,[109423|0]
169,2026-02-26 22:18:13,[109450|0]
170,2026-02-26 22:18:13,[109475|0]
171,2026-02-26 22:18:13,[109546|0]
172,2026-02-26 22:18:13,[109569|0]
173,2026-02-26 22:18:14,[109608|0]
174,2026-02-26 22:18:14,[109623|0]
175,2026-02-26 22:18:14,[109632|0]
176,2026-02-26 22:18:14,[109631|0]
177,2026-02-26 22:18:14,[109687|0]
178,2026-02-26 22:18:14,[109752|0]
179,2026-02-26 22:18:14,[109789|0]
180,2026-02-26 22:18:14,[109615|0]
181,2026-02-26 22:18:14,[109334|0]
182,2026-02-26 22:18:14,[109171|0]
183,2026-02-26 22:18:14,[109232|0]
184,2026-02-26 22:18:14,[109261|0]
185,2026-02-26 22:18:14,[109244|0]
186,2026-02-26 22:18:14,[109254|0]
187,2026-02-26 22:18:14,[109243|0]
188,2026-02-26 22:18:14,[109189|0]
189,2026-02-26 22:18:14,[109214|0]
190,2026-02-26 22:18:14,[109244|0]
191,2026-02-26 22:18:14,[109281|0]
192,2026-02-26 22:18:14,[109348|0]
193,2026-02-26 22:18:14,[109371|0]
194,2026-02-26 22:18:14,[109392|0]
195,2026-02-26 22:18:14,[109424|0]
196,2026-02-26 22:18:14,[109443|0]
197,2026-02-26 22:18:14,[109477|0]
198,2026-02-26 22:18:14,[109499|0]
199,2026-02-26 22:18:15,[109533|0]
200,2026-02-26 22:18:15,[109549|0]
201,2026-02-26 22:18:15,[109609|0]
202,2026-02-26 22:18:15,[109548|0]
203,2026-02-26 22:18:15,[109256|0]
204,2026-02-26 22:18:15,[109054|0]
205,2026-02-26 22:18:15,[109032|0]
206,2026-02-26 22:18:15,[109052|0]
207,2026-02-26 22:18:15,[109071|0]
208,2026-02-26 22:18:15,[109084|0]
209,2026-02-26 22:18:15,[109067|0]
210,2026-02-26 22:18:15,[109046|0]
211,2026-02-26 22:18:15,[109032|0]
212,2026-02-26 22:18:15,[109031|0]
213,2026-02-26 22:18:15,[109101|0]
214,2026-02-26 22:18:15,[109143|0]
215,2026-02-26 22:18:15,[109173|0]
216,2026-02-26 22:18:15,[109198|0]
217,2026-02-26 22:18:15,[109221|0]
218,2026-02-26 22:18:15,[109218|0]
219,2026-02-26 22:18:15,[109267|0]
220,2026-02-26 22:18:15,[109307|0]
221,2026-02-26 22:18:15,[109338|0]
222,2026-02-26 22:18:15,[109408|0]
223,2026-02-26 22:18:16,[109423|0]
224,2026-02-26 22:18:16,[109251|0]
225,2026-02-26 22:18:16,[108994|0]
226,2026-02-26 22:18:16,[108893|0]
227,2026-02-26 22:18:16,[108958|0]
228,2026-02-26 22:18:16,[109021|0]
229,2026-02-26 22:18:16,[109029|0]
230,2026-02-26 22:18:16,[109041|0]
231,2026-02-26 22:18:16,[109036|0]
232,2026-02-26 22:18:16,[108973|0]
233,2026-02-26 22:18:16,[108939|0]
234,2026-02-26 22:18:16,[108961|0]
235,2026-02-26 22:18:16,[109006|0]
236,2026-02-26 22:18:16,[109041|0]
237,2026-02-26 22:18:16,[109089|0]
238,2026-02-26 22:18:16,[109119|0]
239,2026-02-26 22:18:16,[109129|0]
240,2026-02-26 22:18:16,[109156|0]
241,2026-02-26 22:18:16,[109176|0]
242,2026-02-26 22:18:16,[109201|0]
243,2026-02-26 22:18:16,[109268|0]
244,2026-02-26 22:18:16,[109334|0]
245,2026-02-26 22:18:16,[109318|0]
246,2026-02-26 22:18:16,[109029|0]
247,2026-02-26 22:18:16,[108780|0]
248,2026-02-26 22:18:17,[108721|0]
249,2026-02-26 22:18:17,[108809|0]
250,2026-02-26 22:18:17,[108804|0]
251,2026-02-26 22:18:17,[108809|0]
252,2026-02-26 22:18:17,[108813|0]
253,2026-02-26 22:18:17,[108824|0]
254,2026-02-26 22:18:17,[108806|0]
255,2026-02-26 22:18:17,[108845|0]
256,2026-02-26 22:18:17,[108918|0]
257,2026-02-26 22:18:17,[108977|0]
258,2026-02-26 22:18:17,[109040|0]
259,2026-02-26 22:18:17,[109062|0]
260,2026-02-26 22:18:17,[109089|0]
261,2026-02-26 22:18:17,[109144|0]
262,2026-02-26 22:18:17,[109180|0]
263,2026-02-26 22:18:17,[109212|0]
264,2026-02-26 22:18:17,[109257|0]
265,2026-02-26 22:18:17,[109303|0]
266,2026-02-26 22:18:17,[109300|0]
267,2026-02-26 22:18:17,[109035|0]
268,2026-02-26 22:18:17,[108790|0]
269,2026-02-26 22:18:17,[108761|0]
270,2026-02-26 22:18:17,[108830|0]
271,2026-02-26 22:18:17,[108833|0]
272,2026-02-26 22:18:17,[108842|0]
273,2026-02-26 22:18:18,[108881|0]
274,2026-02-26 22:18:18,[108893|0]
275,2026-02-26 22:18:18,[108887|0]
276,2026-02-26 22:18:18,[108908|0]
277,2026-02-26 22:18:18,[108942|0]
278,2026-02-26 22:18:18,[109015|0]
279,2026-02-26 22:18:18,[109015|0]
280,2026-02-26 22:18:18,[109070|0]
281,2026-02-26 22:18:18,[109112|0]
282,2026-02-26 22:18:18,[109136|0]
283,2026-02-26 22:18:18,[109202|0]
284,2026-02-26 22:18:18,[109208|0]
285,2026-02-26 22:18:18,[109264|0]
286,2026-02-26 22:18:18,[109332|0]
287,2026-02-26 22:18:18,[109391|0]
288,2026-02-26 22:18:18,[109356|0]
289,2026-02-26 22:18:18,[109070|0]
290,2026-02-26 22:18:18,[108894|0]
291,2026-02-26 22:18:18,[108955|0]
292,2026-02-26 22:18:18,[109045|0]
293,2026-02-26 22:18:18,[109089|0]
294,2026-02-26 22:18:18,[109130|0]
295,2026-02-26 22:18:18,[109162|0]
296,2026-02-26 22:18:18,[109108|0]
297,2026-02-26 22:18:18,[109146|0]
298,2026-02-26 22:18:19,[109194|0]
299,2026-02-26 22:18:19,[109252|0]
300,2026-02-26 22:18:19,[109313|0]
301,2026-02-26 22:18:19,[109355|0]
302,2026-02-26 22:18:19,[109371|0]
303,2026-02-26 22:18:19,[109422|0]
304,2026-02-26 22:18:19,[109458|0]
305,2026-02-26 22:18:19,[109493|0]
306,2026-02-26 22:18:19,[109536|0]
307,2026-02-26 22:18:19,[109590|0]
308,2026-02-26 22:18:19,[109598|0]
309,2026-02-26 22:18:19,[109674|0]
310,2026-02-26 22:18:19,[109493|0]
311,2026-02-26 22:18:19,[109266|0]
312,2026-02-26 22:18:19,[109235|0]
313,2026-02-26 22:18:19,[109365|0]
314,2026-02-26 22:18:19,[109404|0]
315,2026-02-26 22:18:19,[109481|0]
316,2026-02-26 22:18:19,[109501|0]
317,2026-02-26 22:18:19,[109466|0]
318,2026-02-26 22:18:19,[109468|0]
319,2026-02-26 22:18:19,[109502|0]
320,2026-02-26 22:18:19,[109540|0]
321,2026-02-26 22:18:19,[109620|0]
322,2026-02-26 22:18:19,[109666|0]
323,2026-02-26 22:18:20,[109702|0]
324,2026-02-26 22:18:20,[109724|0]
325,2026-02-26 22:18:20,[109749|0]
326,2026-02-26 22:18:20,[109749|0]
327,2026-02-26 22:18:20,[109821|0]
328,2026-02-26 22:18:20,[109860|0]
329,2026-02-26 22:18:20,[109719|0]
330,2026-02-26 22:18:20,[109483|0]
331,2026-02-26 22:18:20,[109426|0]
332,2026-02-26 22:18:20,[109488|0]
333,2026-02-26 22:18:20,[109596|0]
334,2026-02-26 22:18:20,[109637|0]
335,2026-02-26 22:18:20,[109681|0]
336,2026-02-26 22:18:20,[109655|0]
337,2026-02-26 22:18:20,[109638|0]
338,2026-02-26 22:18:20,[109635|0]
339,2026-02-26 22:18:20,[109715|0]
340,2026-02-26 22:18:20,[109775|0]
341,2026-02-26 22:18:20,[109822|0]
342,2026-02-26 22:18:20,[109840|0]
343,2026-02-26 22:18:20,[109899|0]
344,2026-02-26 22:18:20,[109880|0]
345,2026-02-26 22:18:20,[109922|0]
346,2026-02-26 22:18:20,[109953|0]
347,2026-02-26 22:18:20,[109998|0]
348,2026-02-26 22:18:20,[109991|0]
349,2026-02-26 22:18:21,[109745|0]
350,2026-02-26 22:18:21,[109533|0]
351,2026-02-26 22:18:21,[109598|0]
352,2026-02-26 22:18:21,[109700|0]
353,2026-02-26 22:18:21,[109754|0]
354,2026-02-26 22:18:21,[109784|0]
355,2026-02-26 22:18:21,[109784|0]
356,2026-02-26 22:18:21,[109750|0]
357,2026-02-26 22:18:21,[109765|0]
358,2026-02-26 22:18:21,[109804|0]
359,2026-02-26 22:18:21,[109846|0]
360,2026-02-26 22:18:21,[109897|0]
361,2026-02-26 22:18:21,[109922|0]
362,2026-02-26 22:18:21,[109941|0]
363,2026-02-26 22:18:21,[109976|0]
364,2026-02-26 22:18:21,[109998|0]
365,2026-02-26 22:18:21,[110005|0]
366,2026-02-26 22:18:21,[110053|0]
367,2026-02-26 22:18:21,[110072|0]
368,2026-02-26 22:18:21,[110090|0]
369,2026-02-26 22:18:21,[109927|0]
370,2026-02-26 22:18:21,[109690|0]
371,2026-02-26 22:18:21,[109678|0]
372,2026-02-26 22:18:21,[109779|0]
373,2026-02-26 22:18:21,[109855|0]
374,2026-02-26 22:18:22,[109891|0]
375,2026-02-26 22:18:22,[109902|0]
376,2026-02-26 22:18:22,[109858|0]
377,2026-02-26 22:18:22,[109835|0]
378,2026-02-26 22:18:22,[109867|0]
379,2026-02-26 22:18:22,[109906|0]
380,2026-02-26 22:18:22,[109952|0]
381,2026-02-26 22:18:22,[110001|0]
382,2026-02-26 22:18:22,[110020|0]
383,2026-02-26 22:18:22,[110039|0]
384,2026-02-26 22:18:22,[110042|0]
385,2026-02-26 22:18:22,[110056|0]
386,2026-02-26 22:18:22,[110092|0]
387,2026-02-26 22:18:22,[110038|0]
388,2026-02-26 22:18:22,[109777|0]
389,2026-02-26 22:18:22,[109668|0]
390,2026-02-26 22:18:22,[109726|0]
391,2026-02-26 22:18:22,[109807|0]
392,2026-02-26 22:18:22,[109861|0]
393,2026-02-26 22:18:22,[109914|0]
394,2026-02-26 22:18:22,[109890|0]
395,2026-02-26 22:18:22,[109846|0]
396,2026-02-26 22:18:22,[109843|0]
397,2026-02-26 22:18:22,[109876|0]
398,2026-02-26 22:18:23,[109924|0]
399,2026-02-26 22:18:23,[109985|0]
400,2026-02-26 22:18:23,[110011|0]
401,2026-02-26 22:18:23,[110011|0]
402,2026-02-26 22:18:23,[110019|0]
403,2026-02-26 22:18:23,[110035|0]
404,2026-02-26 22:18:23,[110053|0]
405,2026-02-26 22:18:23,[110085|0]
406,2026-02-26 22:18:23,[110111|0]
407,2026-02-26 22:18:23,[110123|0]
408,2026-02-26 22:18:23,[109862|0]
409,2026-02-26 22:18:23,[109623|0]
410,2026-02-26 22:18:23,[109605|0]
411,2026-02-26 22:18:23,[109729|0]
412,2026-02-26 22:18:23,[109774|0]
413,2026-02-26 22:18:23,[109779|0]
414,2026-02-26 22:18:23,[109789|0]
415,2026-02-26 22:18:23,[109756|0]
416,2026-02-26 22:18:23,[109726|0]
417,2026-02-26 22:18:23,[109771|0]
418,2026-02-26 22:18:23,[109816|0]
419,2026-02-26 22:18:23,[109857|0]
420,2026-02-26 22:18:23,[109893|0]
421,2026-02-26 22:18:23,[109923|0]
422,2026-02-26 22:18:23,[109897|0]
423,2026-02-26 22:18:23,[109940|0]
424,2026-02-26 22:18:24,[109940|0]
425,2026-02-26 22:18:24,[109971|0]
426,2026-02-26 22:18:24,[110016|0]
427,2026-02-26 22:18:24,[109995|0]
428,2026-02-26 22:18:24,[109688|0]
429,2026-02-26 22:18:24,[109505|0]
430,2026-02-26 22:18:24,[109510|0]
431,2026-02-26 22:18:24,[109589|0]
432,2026-02-26 22:18:24,[109637|0]
433,2026-02-26 22:18:24,[109644|0]
434,2026-02-26 22:18:24,[109602|0]
435,2026-02-26 22:18:24,[109605|0]
436,2026-02-26 22:18:24,[109590|0]
437,2026-02-26 22:18:24,[109611|0]
438,2026-02-26 22:18:24,[109640|0]
439,2026-02-26 22:18:24,[109666|0]
440,2026-02-26 22:18:24,[109691|0]
441,2026-02-26 22:18:24,[109721|0]
442,2026-02-26 22:18:24,[109721|0]
443,2026-02-26 22:18:24,[109731|0]
444,2026-02-26 22:18:24,[109755|0]
445,2026-02-26 22:18:24,[109795|0]
446,2026-02-26 22:18:24,[109781|0]
447,2026-02-26 22:18:24,[109619|0]
448,2026-02-26 22:18:25,[109369|0]
449,2026-02-26 22:18:25,[109321|0]
450,2026-02-26 22:18:25,[109392|0]
451,2026-02-26 22:18:25,[109453|0]
452,2026-02-26 22:18:25,[109452|0]
453,2026-02-26 22:18:25,[109481|0]
454,2026-02-26 22:18:25,[109435|0]
455,2026-02-26 22:18:25,[109399|0]
456,2026-02-26 22:18:25,[109432|0]
457,2026-02-26 22:18:25,[109473|0]
458,2026-02-26 22:18:25,[109481|0]
459,2026-02-26 22:18:25,[109548|0]
460,2026-02-26 22:18:25,[109571|0]
461,2026-02-26 22:18:25,[109577|0]
462,2026-02-26 22:18:25,[109602|0]
463,2026-02-26 22:18:25,[109617|0]
464,2026-02-26 22:18:25,[109581|0]
465,2026-02-26 22:18:25,[109669|0]
466,2026-02-26 22:18:25,[109717|0]
467,2026-02-26 22:18:25,[109465|0]
468,2026-02-26 22:18:25,[109170|0]
469,2026-02-26 22:18:25,[109107|0]
470,2026-02-26 22:18:25,[109132|0]
471,2026-02-26 22:18:25,[109180|0]
472,2026-02-26 22:18:25,[109189|0]
473,2026-02-26 22:18:26,[109197|0]
474,2026-02-26 22:18:26,[109178|0]
475,2026-02-26 22:18:26,[109119|0]
476,2026-02-26 22:18:26,[109124|0]
477,2026-02-26 22:18:26,[109181|0]
478,2026-02-26 22:18:26,[109225|0]
479,2026-02-26 22:18:26,[109253|0]
480,2026-02-26 22:18:26,[109287|0]
481,2026-02-26 22:18:26,[109285|0]
482,2026-02-26 22:18:26,[109279|0]
483,2026-02-26 22:18:26,[109317|0]
484,2026-02-26 22:18:26,[109342|0]
485,2026-02-26 22:18:26,[109380|0]
486,2026-02-26 22:18:26,[109420|0]
487,2026-02-26 22:18:26,[109458|0]
488,2026-02-26 22:18:26,[109286|0]
489,2026-02-26 22:18:26,[108971|0]
490,2026-02-26 22:18:26,[108842|0]
491,2026-02-26 22:18:26,[108887|0]
492,2026-02-26 22:18:26,[108941|0]
493,2026-02-26 22:18:26,[108911|0]
494,2026-02-26 22:18:26,[108913|0]
495,2026-02-26 22:18:26,[108928|0]
496,2026-02-26 22:18:26,[108919|0]
497,2026-02-26 22:18:26,[108893|0]
498,2026-02-26 22:18:26,[108927|0]
499,2026-02-26 22:18:27,[108970|0]
500,2026-02-26 22:18:27,[109012|0]
501,2026-02-26 22:18:27,[109046|0]
502,2026-02-26 22:18:27,[109076|0]
503,2026-02-26 22:18:27,[109088|0]
504,2026-02-26 22:18:27,[109114|0]
505,2026-02-26 22:18:27,[109124|0]
506,2026-02-26 22:18:27,[109169|0]
507,2026-02-26 22:18:27,[109212|0]
508,2026-02-26 22:18:27,[109260|0]
509,2026-02-26 22:18:27,[109314|0]
510,2026-02-26 22:18:27,[109223|0]
511,2026-02-26 22:18:27,[108875|0]
512,2026-02-26 22:18:27,[108710|0]
513,2026-02-26 22:18:27,[108736|0]
514,2026-02-26 22:18:27,[108825|0]
515,2026-02-26 22:18:27,[108855|0]
516,2026-02-26 22:18:27,[108888|0]
517,2026-02-26 22:18:27,[108836|0]
518,2026-02-26 22:18:27,[108797|0]
519,2026-02-26 22:18:27,[108799|0]
520,2026-02-26 22:18:27,[108844|0]
521,2026-02-26 22:18:27,[108896|0]
522,2026-02-26 22:18:27,[108896|0]
523,2026-02-26 22:18:28,[108948|0]
524,2026-02-26 22:18:28,[108966|0]
525,2026-02-26 22:18:28,[109005|0]
526,2026-02-26 22:18:28,[109073|0]
527,2026-02-26 22:18:28,[109093|0]
528,2026-02-26 22:18:28,[109125|0]
529,2026-02-26 22:18:28,[109170|0]
530,2026-02-26 22:18:28,[109184|0]
531,2026-02-26 22:18:28,[109265|0]
532,2026-02-26 22:18:28,[109265|0]
533,2026-02-26 22:18:28,[108952|0]
534,2026-02-26 22:18:28,[108695|0]
535,2026-02-26 22:18:28,[108657|0]
536,2026-02-26 22:18:28,[108703|0]
537,2026-02-26 22:18:28,[108766|0]
538,2026-02-26 22:18:28,[108777|0]
539,2026-02-26 22:18:28,[108793|0]
540,2026-02-26 22:18:28,[108773|0]
541,2026-02-26 22:18:28,[108738|0]
542,2026-02-26 22:18:28,[108745|0]
543,2026-02-26 22:18:28,[108833|0]
544,2026-02-26 22:18:28,[108880|0]
545,2026-02-26 22:18:28,[108937|0]
546,2026-02-26 22:18:28,[108977|0]
547,2026-02-26 22:18:28,[109009|0]
548,2026-02-26 22:18:29,[109007|0]
549,2026-02-26 22:18:29,[109055|0]
550,2026-02-26 22:18:29,[109100|0]
551,2026-02-26 22:18:29,[109148|0]
552,2026-02-26 22:18:29,[109193|0]
553,2026-02-26 22:18:29,[109239|0]
554,2026-02-26 22:18:29,[109247|0]
555,2026-02-26 22:18:29,[109009|0]
556,2026-02-26 22:18:29,[108713|0]
557,2026-02-26 22:18:29,[108623|0]
558,2026-02-26 22:18:29,[108672|0]
559,2026-02-26 22:18:29,[108727|0]
560,2026-02-26 22:18:29,[108721|0]
561,2026-02-26 22:18:29,[108766|0]
562,2026-02-26 22:18:29,[108736|0]
563,2026-02-26 22:18:29,[108703|0]
564,2026-02-26 22:18:29,[108721|0]
565,2026-02-26 22:18:29,[108788|0]
566,2026-02-26 22:18:29,[108814|0]
567,2026-02-26 22:18:29,[108889|0]
568,2026-02-26 22:18:29,[108943|0]
569,2026-02-26 22:18:29,[108990|0]
570,2026-02-26 22:18:29,[108999|0]
571,2026-02-26 22:18:29,[109028|0]
572,2026-02-26 22:18:29,[109028|0]
573,2026-02-26 22:18:29,[109102|0]
574,2026-02-26 22:18:30,[109152|0]
575,2026-02-26 22:18:30,[109226|0]
576,2026-02-26 22:18:30,[109142|0]
577,2026-02-26 22:18:30,[108823|0]
578,2026-02-26 22:18:30,[108609|0]
579,2026-02-26 22:18:30,[108671|0]
580,2026-02-26 22:18:30,[108775|0]
581,2026-02-26 22:18:30,[108843|0]
582,2026-02-26 22:18:30,[108889|0]
583,2026-02-26 22:18:30,[108853|0]
584,2026-02-26 22:18:30,[108783|0]
585,2026-02-26 22:18:30,[108792|0]
586,2026-02-26 22:18:30,[108849|0]
587,2026-02-26 22:18:30,[108908|0]
588,2026-02-26 22:18:30,[108986|0]
589,2026-02-26 22:18:30,[109029|0]
590,2026-02-26 22:18:30,[109030|0]
591,2026-02-26 22:18:30,[109068|0]
592,2026-02-26 22:18:30,[109098|0]
593,2026-02-26 22:18:30,[109133|0]
594,2026-02-26 22:18:30,[109192|0]
595,2026-02-26 22:18:30,[109106|0]
596,2026-02-26 22:18:30,[108753|0]
597,2026-02-26 22:18:30,[108614|0]
598,2026-02-26 22:18:31,[108637|0]
599,2026-02-26 22:18:31,[108722|0]
600,2026-02-26 22:18:31,[108777|0]
601,2026-02-26 22:18:31,[108802|0]
602,2026-02-26 22:18:31,[108765|0]
603,2026-02-26 22:18:31,[108737|0]
604,2026-02-26 22:18:31,[108757|0]
605,2026-02-26 22:18:31,[108798|0]
606,2026-02-26 22:18:31,[108873|0]
607,2026-02-26 22:18:31,[108924|0]
608,2026-02-26 22:18:31,[108956|0]
609,2026-02-26 22:18:31,[109014|0]
610,2026-02-26 22:18:31,[109036|0]
611,2026-02-26 22:18:31,[109055|0]
612,2026-02-26 22:18:31,[109086|0]
613,2026-02-26 22:18:31,[109121|0]
614,2026-02-26 22:18:31,[109144|0]
615,2026-02-26 22:18:31,[108915|0]
616,2026-02-26 22:18:31,[108607|0]
617,2026-02-26 22:18:31,[108484|0]
618,2026-02-26 22:18:31,[108547|0]
619,2026-02-26 22:18:31,[108583|0]
620,2026-02-26 22:18:31,[108572|0]
621,2026-02-26 22:18:31,[108611|0]
622,2026-02-26 22:18:31,[108611|0]
623,2026-02-26 22:18:32,[108587|0]
624,2026-02-26 22:18:32,[108594|0]
625,2026-02-26 22:18:32,[108624|0]
626,2026-02-26 22:18:32,[108704|0]
627,2026-02-26 22:18:32,[108758|0]
628,2026-02-26 22:18:32,[108802|0]
629,2026-02-26 22:18:32,[108829|0]
630,2026-02-26 22:18:32,[108847|0]
631,2026-02-26 22:18:32,[108861|0]
632,2026-02-26 22:18:32,[108891|0]
633,2026-02-26 22:18:32,[108953|0]
634,2026-02-26 22:18:32,[109012|0]
635,2026-02-26 22:18:32,[108929|0]
636,2026-02-26 22:18:32,[108576|0]
637,2026-02-26 22:18:32,[108334|0]
638,2026-02-26 22:18:32,[108355|0]
639,2026-02-26 22:18:32,[108425|0]
640,2026-02-26 22:18:32,[108428|0]
641,2026-02-26 22:18:32,[108447|0]
642,2026-02-26 22:18:32,[108447|0]
643,2026-02-26 22:18:32,[108445|0]
644,2026-02-26 22:18:32,[108402|0]
645,2026-02-26 22:18:32,[108401|0]
646,2026-02-26 22:18:32,[108456|0]
647,2026-02-26 22:18:32,[108495|0]
648,2026-02-26 22:18:32,[108545|0]
649,2026-02-26 22:18:33,[108594|0]
650,2026-02-26 22:18:33,[108619|0]
651,2026-02-26 22:18:33,[108655|0]
652,2026-02-26 22:18:33,[108669|0]
653,2026-02-26 22:18:33,[108709|0]
654,2026-02-26 22:18:33,[108759|0]
655,2026-02-26 22:18:33,[108820|0]
656,2026-02-26 22:18:33,[108808|0]
657,2026-02-26 22:18:33,[108585|0]
658,2026-02-26 22:18:33,[108337|0]
659,2026-02-26 22:18:33,[108290|0]
660,2026-02-26 22:18:33,[108363|0]
661,2026-02-26 22:18:33,[108412|0]
662,2026-02-26 22:18:33,[108422|0]
663,2026-02-26 22:18:33,[108462|0]
664,2026-02-26 22:18:33,[108429|0]
665,2026-02-26 22:18:33,[108427|0]
666,2026-02-26 22:18:33,[108466|0]
667,2026-02-26 22:18:33,[108521|0]
668,2026-02-26 22:18:33,[108558|0]
669,2026-02-26 22:18:33,[108635|0]
670,2026-02-26 22:18:33,[108677|0]
671,2026-02-26 22:18:33,[108705|0]
672,2026-02-26 22:18:33,[108723|0]
673,2026-02-26 22:18:34,[108759|0]
674,2026-02-26 22:18:34,[108773|0]
675,2026-02-26 22:18:34,[108851|0]
676,2026-02-26 22:18:34,[108930|0]
677,2026-02-26 22:18:34,[108858|0]
678,2026-02-26 22:18:34,[108526|0]
679,2026-02-26 22:18:34,[108318|0]
680,2026-02-26 22:18:34,[108302|0]
681,2026-02-26 22:18:34,[108390|0]
682,2026-02-26 22:18:34,[108384|0]
683,2026-02-26 22:18:34,[108398|0]
684,2026-02-26 22:18:34,[108414|0]
685,2026-02-26 22:18:34,[108392|0]
686,2026-02-26 22:18:34,[108351|0]
687,2026-02-26 22:18:34,[108404|0]
688,2026-02-26 22:18:34,[108439|0]
689,2026-02-26 22:18:34,[108483|0]
690,2026-02-26 22:18:34,[108507|0]
691,2026-02-26 22:18:34,[108522|0]
692,2026-02-26 22:18:34,[108504|0]
693,2026-02-26 22:18:34,[108557|0]
694,2026-02-26 22:18:34,[108594|0]
695,2026-02-26 22:18:34,[108634|0]
696,2026-02-26 22:18:34,[108678|0]
697,2026-02-26 22:18:34,[108722|0]
698,2026-02-26 22:18:35,[108736|0]
699,2026-02-26 22:18:35,[108813|0]
700,2026-02-26 22:18:35,[108825|0]
701,2026-02-26 22:18:35,[108540|0]
702,2026-02-26 22:18:35,[108236|0]
703,2026-02-26 22:18:35,[108155|0]
704,2026-02-26 22:18:35,[108176|0]
705,2026-02-26 22:18:35,[108219|0]
706,2026-02-26 22:18:35,[108226|0]
707,2026-02-26 22:18:35,[108225|0]
708,2026-02-26 22:18:35,[108224|0]
709,2026-02-26 22:18:35,[108203|0]
710,2026-02-26 22:18:35,[108195|0]
711,2026-02-26 22:18:35,[108227|0]
712,2026-02-26 22:18:35,[108267|0]
713,2026-02-26 22:18:35,[108316|0]
714,2026-02-26 22:18:35,[108357|0]
715,2026-02-26 22:18:35,[108372|0]
716,2026-02-26 22:18:35,[108388|0]
717,2026-02-26 22:18:35,[108431|0]
718,2026-02-26 22:18:35,[108471|0]
719,2026-02-26 22:18:35,[108518|0]
720,2026-02-26 22:18:35,[108558|0]
721,2026-02-26 22:18:35,[108591|0]
722,2026-02-26 22:18:35,[108629|0]
723,2026-02-26 22:18:35,[108691|0]
724,2026-02-26 22:18:36,[108498|0]
725,2026-02-26 22:18:36,[108204|0]
726,2026-02-26 22:18:36,[108117|0]
727,2026-02-26 22:18:36,[108174|0]
728,2026-02-26 22:18:36,[108225|0]
729,2026-02-26 22:18:36,[108279|0]
730,2026-02-26 22:18:36,[108305|0]
731,2026-02-26 22:18:36,[108269|0]
732,2026-02-26 22:18:36,[108240|0]
733,2026-02-26 22:18:36,[108242|0]
734,2026-02-26 22:18:36,[108284|0]
735,2026-02-26 22:18:36,[108377|0]
736,2026-02-26 22:18:36,[108428|0]
737,2026-02-26 22:18:36,[108480|0]
738,2026-02-26 22:18:36,[108500|0]
739,2026-02-26 22:18:36,[108506|0]
740,2026-02-26 22:18:36,[108542|0]
741,2026-02-26 22:18:36,[108593|0]
742,2026-02-26 22:18:36,[108648|0]
743,2026-02-26 22:18:36,[108689|0]
744,2026-02-26 22:18:36,[108727|0]
745,2026-02-26 22:18:36,[108769|0]
746,2026-02-26 22:18:36,[108814|0]
747,2026-02-26 22:18:36,[108773|0]
748,2026-02-26 22:18:36,[108421|0]
749,2026-02-26 22:18:37,[108171|0]
750,2026-02-26 22:18:37,[108163|0]
751,2026-02-26 22:18:37,[108215|0]
752,2026-02-26 22:18:37,[108245|0]
753,2026-02-26 22:18:37,[108247|0]
754,2026-02-26 22:18:37,[108278|0]
755,2026-02-26 22:18:37,[108271|0]
756,2026-02-26 22:18:37,[108260|0]
757,2026-02-26 22:18:37,[108250|0]
758,2026-02-26 22:18:37,[108313|0]
759,2026-02-26 22:18:37,[108380|0]
760,2026-02-26 22:18:37,[108425|0]
761,2026-02-26 22:18:37,[108480|0]
762,2026-02-26 22:18:37,[108480|0]
763,2026-02-26 22:18:37,[108507|0]
764,2026-02-26 22:18:37,[108520|0]
765,2026-02-26 22:18:37,[108558|0]
766,2026-02-26 22:18:37,[108623|0]
767,2026-02-26 22:18:37,[108692|0]
768,2026-02-26 22:18:37,[108734|0]
769,2026-02-26 22:18:37,[108773|0]
770,2026-02-26 22:18:37,[108802|0]
771,2026-02-26 22:18:37,[108872|0]
772,2026-02-26 22:18:37,[108913|0]
773,2026-02-26 22:18:38,[108875|0]
774,2026-02-26 22:18:38,[108494|0]
775,2026-02-26 22:18:38,[108265|0]
776,2026-02-26 22:18:38,[108234|0]
777,2026-02-26 22:18:38,[108352|0]
778,2026-02-26 22:18:38,[108385|0]
779,2026-02-26 22:18:38,[108401|0]
780,2026-02-26 22:18:38,[108427|0]
781,2026-02-26 22:18:38,[108402|0]
782,2026-02-26 22:18:38,[108357|0]
783,2026-02-26 22:18:38,[108418|0]
784,2026-02-26 22:18:38,[108474|0]
785,2026-02-26 22:18:38,[108542|0]
786,2026-02-26 22:18:38,[108606|0]
787,2026-02-26 22:18:38,[108651|0]
788,2026-02-26 22:18:38,[108646|0]
789,2026-02-26 22:18:38,[108707|0]
790,2026-02-26 22:18:38,[108753|0]
791,2026-02-26 22:18:38,[108796|0]
792,2026-02-26 22:18:38,[108846|0]
793,2026-02-26 22:18:38,[108887|0]
794,2026-02-26 22:18:38,[108911|0]
795,2026-02-26 22:18:38,[109004|0]
796,2026-02-26 22:18:38,[109031|0]
797,2026-02-26 22:18:38,[108754|0]
798,2026-02-26 22:18:38,[108429|0]
799,2026-02-26 22:18:39,[108372|0]
800,2026-02-26 22:18:39,[108434|0]
801,2026-02-26 22:18:39,[108544|0]
802,2026-02-26 22:18:39,[108566|0]
803,2026-02-26 22:18:39,[108607|0]
804,2026-02-26 22:18:39,[108574|0]
805,2026-02-26 22:18:39,[108542|0]
806,2026-02-26 22:18:39,[108531|0]
807,2026-02-26 22:18:39,[108618|0]
808,2026-02-26 22:18:39,[108704|0]
809,2026-02-26 22:18:39,[108780|0]
810,2026-02-26 22:18:39,[108827|0]
811,2026-02-26 22:18:39,[108859|0]
812,2026-02-26 22:18:39,[108856|0]
813,2026-02-26 22:18:39,[108933|0]
814,2026-02-26 22:18:39,[108965|0]
815,2026-02-26 22:18:39,[109018|0]
816,2026-02-26 22:18:39,[109063|0]
817,2026-02-26 22:18:39,[109116|0]
818,2026-02-26 22:18:39,[109140|0]
819,2026-02-26 22:18:39,[109042|0]
820,2026-02-26 22:18:39,[108632|0]
821,2026-02-26 22:18:39,[108436|0]
822,2026-02-26 22:18:39,[108464|0]
823,2026-02-26 22:18:40,[108562|0]
824,2026-02-26 22:18:40,[108556|0]
825,2026-02-26 22:18:40,[108597|0]
826,2026-02-26 22:18:40,[108611|0]
827,2026-02-26 22:18:40,[108607|0]
828,2026-02-26 22:18:40,[108605|0]
829,2026-02-26 22:18:40,[108648|0]
830,2026-02-26 22:18:40,[108677|0]
831,2026-02-26 22:18:40,[108769|0]
832,2026-02-26 22:18:40,[108821|0]
833,2026-02-26 22:18:40,[108865|0]
834,2026-02-26 22:18:40,[108875|0]
835,2026-02-26 22:18:40,[108899|0]
836,2026-02-26 22:18:40,[108902|0]
837,2026-02-26 22:18:40,[108952|0]
838,2026-02-26 22:18:40,[109004|0]
839,2026-02-26 22:18:40,[109070|0]
840,2026-02-26 22:18:40,[109038|0]
841,2026-02-26 22:18:40,[108684|0]
842,2026-02-26 22:18:40,[108439|0]
843,2026-02-26 22:18:40,[108440|0]
844,2026-02-26 22:18:40,[108556|0]
845,2026-02-26 22:18:40,[108619|0]
846,2026-02-26 22:18:40,[108666|0]
847,2026-02-26 22:18:40,[108646|0]
848,2026-02-26 22:18:41,[108582|0]
849,2026-02-26 22:18:41,[108583|0]
850,2026-02-26 22:18:41,[108628|0]
851,2026-02-26 22:18:41,[108682|0]
852,2026-02-26 22:18:41,[108750|0]
853,2026-02-26 22:18:41,[108793|0]
854,2026-02-26 22:18:41,[108801|0]
855,2026-02-26 22:18:41,[108843|0]
856,2026-02-26 22:18:41,[108872|0]
857,2026-02-26 22:18:41,[108918|0]
858,2026-02-26 22:18:41,[108950|0]
859,2026-02-26 22:18:41,[108991|0]
860,2026-02-26 22:18:41,[109009|0]
861,2026-02-26 22:18:41,[108739|0]
862,2026-02-26 22:18:41,[108425|0]
863,2026-02-26 22:18:41,[108333|0]
864,2026-02-26 22:18:41,[108412|0]
865,2026-02-26 22:18:41,[108441|0]
866,2026-02-26 22:18:41,[108440|0]
867,2026-02-26 22:18:41,[108487|0]
868,2026-02-26 22:18:41,[108476|0]
869,2026-02-26 22:18:41,[108452|0]
870,2026-02-26 22:18:41,[108467|0]
871,2026-02-26 22:18:41,[108491|0]
872,2026-02-26 22:18:41,[108575|0]
873,2026-02-26 22:18:41,[108640|0]
874,2026-02-26 22:18:42,[108686|0]
875,2026-02-26 22:18:42,[108713|0]
876,2026-02-26 22:18:42,[108744|0]
877,2026-02-26 22:18:42,[108747|0]
878,2026-02-26 22:18:42,[108793|0]
879,2026-02-26 22:18:42,[108854|0]
880,2026-02-26 22:18:42,[108903|0]
881,2026-02-26 22:18:42,[108969|0]
882,2026-02-26 22:18:42,[108778|0]
883,2026-02-26 22:18:42,[108778|0]
884,2026-02-26 22:18:42,[108392|0]
885,2026-02-26 22:18:42,[108268|0]
886,2026-02-26 22:18:42,[108334|0]
887,2026-02-26 22:18:42,[108423|0]
888,2026-02-26 22:18:42,[108426|0]
889,2026-02-26 22:18:42,[108449|0]
