Packet_Number,Timestamp,Data
1,2026-02-26 22:18:07,[107968|0]
2,2026-02-26 22:18:07,[107972|0]
3,2026-02-26 22:18:07,[108001|0]
4,2026-02-26 22:18:07,[108004|0]
5,2026-02-26 22:18:07,[107985|0]
6,2026-02-26 22:18:07,[107983|0]
7,2026-02-26 22:18:07,[108005|0]
8,2026-02-26 22:18:07,[108023|0]
9,2026-02-26 22:18:07,[108061|0]
10,2026-02-26 22:18:07,[108074|0]
11,2026-02-26 22:18:07,[108082|0]
12,2026-02-26 22:18:07,[108084|0]
13,2026-02-26 22:18:07,[108115|0]
14,2026-02-26 22:18:07,[108110|0]
15,2026-02-26 22:18:07,[108140|0]
16,2026-02-26 22:18:07,[108150|0]
17,2026-02-26 22:18:07,[108162|0]
18,2026-02-26 22:18:07,[108163|0]
19,2026-02-26 22:18:07,[108023|0]
20,2026-02-26 22:18:07,[107929|0]
21,2026-02-26 22:18:07,[107940|0]
22,2026-02-26 22:18:07,[107985|0]
23,2026-02-26 22:18:08,[108034|0]
24,2026-02-26 22:18:08,[108083|0]
25,2026-02-26 22:18:08,[108065|0]
26,2026-02-26 22:18:08,[108041|0]
27,2026-02-26 22:18:08,[108015|0]
28,2026-02-26 22:18:08,[108031|0]
29,2026-02-26 22:18:08,[108058|0]
30,2026-02-26 22:18:08,[108091|0]
31,2026-02-26 22:18:08,[108093|0]
32,2026-02-26 22:18:08,[108123|0]
33,2026-02-26 22:18:08,[108128|0]
34,2026-02-26 22:18:08,[108136|0]
35,2026-02-26 22:18:08,[108141|0]
36,2026-02-26 22:18:08,[108141|0]
37,2026-02-26 22:18:08,[108160|0]
38,2026-02-26 22:18:08,[108163|0]
39,2026-02-26 22:18:08,[108082|0]
40,2026-02-26 22:18:08,[107955|0]
41,2026-02-26 22:18:08,[107923|0]
42,2026-02-26 22:18:08,[107976|0]
43,2026-02-26 22:18:08,[108046|0]
44,2026-02-26 22:18:08,[108033|0]
45,2026-02-26 22:18:08,[108060|0]
46,2026-02-26 22:18:08,[108046|0]
47,2026-02-26 22:18:08,[108021|0]
48,2026-02-26 22:18:09,[108042|0]
49,2026-02-26 22:18:09,[108061|0]
50,2026-02-26 22:18:09,[108079|0]
51,2026-02-26 22:18:09,[108112|0]
52,2026-02-26 22:18:09,[108136|0]
53,2026-02-26 22:18:09,[108158|0]
54,2026-02-26 22:18:09,[108166|0]
55,2026-02-26 22:18:09,[108176|0]
56,2026-02-26 22:18:09,[108157|0]
57,2026-02-26 22:18:09,[108204|0]
58,2026-02-26 22:18:09,[108233|0]
59,2026-02-26 22:18:09,[108204|0]
60,2026-02-26 22:18:09,[108046|0]
61,2026-02-26 22:18:09,[107979|0]
62,2026-02-26 22:18:09,[107974|0]
63,2026-02-26 22:18:09,[108061|0]
64,2026-02-26 22:18:09,[108089|0]
65,2026-02-26 22:18:09,[108094|0]
66,2026-02-26 22:18:09,[108099|0]
67,2026-02-26 22:18:09,[108088|0]
68,2026-02-26 22:18:09,[108044|0]
69,2026-02-26 22:18:09,[108094|0]
70,2026-02-26 22:18:09,[108114|0]
71,2026-02-26 22:18:09,[108138|0]
72,2026-02-26 22:18:09,[108161|0]
73,2026-02-26 22:18:10,[108193|0]
74,2026-02-26 22:18:10,[108162|0]
75,2026-02-26 22:18:10,[108192|0]
76,2026-02-26 22:18:10,[108204|0]
77,2026-02-26 22:18:10,[108212|0]
78,2026-02-26 22:18:10,[108240|0]
79,2026-02-26 22:18:10,[108251|0]
80,2026-02-26 22:18:10,[108107|0]
81,2026-02-26 22:18:10,[108019|0]
82,2026-02-26 22:18:10,[108019|0]
83,2026-02-26 22:18:10,[108068|0]
84,2026-02-26 22:18:10,[108098|0]
85,2026-02-26 22:18:10,[108104|0]
86,2026-02-26 22:18:10,[108082|0]
87,2026-02-26 22:18:10,[108096|0]
88,2026-02-26 22:18:10,[108081|0]
89,2026-02-26 22:18:10,[108094|0]
90,2026-02-26 22:18:10,[108106|0]
91,2026-02-26 22:18:10,[108133|0]
92,2026-02-26 22:18:10,[108123|0]
93,2026-02-26 22:18:10,[108160|0]
94,2026-02-26 22:18:10,[108166|0]
95,2026-02-26 22:18:10,[108178|0]
96,2026-02-26 22:18:10,[108175|0]
97,2026-02-26 22:18:10,[108191|0]
98,2026-02-26 22:18:11,[108189|0]
99,2026-02-26 22:18:11,[108175|0]
100,2026-02-26 22:18:11,[108047|0]
101,2026-02-26 22:18:11,[108007|0]
102,2026-02-26 22:18:11,[108027|0]
103,2026-02-26 22:18:11,[108069|0]
104,2026-02-26 22:18:11,[108070|0]
105,2026-02-26 22:18:11,[108098|0]
106,2026-02-26 22:18:11,[108075|0]
107,2026-02-26 22:18:11,[108052|0]
108,2026-02-26 22:18:11,[108057|0]
109,2026-02-26 22:18:11,[108079|0]
110,2026-02-26 22:18:11,[108074|0]
111,2026-02-26 22:18:11,[108109|0]
112,2026-02-26 22:18:11,[108123|0]
113,2026-02-26 22:18:11,[108136|0]
114,2026-02-26 22:18:11,[108137|0]
115,2026-02-26 22:18:11,[108140|0]
116,2026-02-26 22:18:11,[108132|0]
117,2026-02-26 22:18:11,[108181|0]
118,2026-02-26 22:18:11,[108161|0]
119,2026-02-26 22:18:11,[108037|0]
120,2026-02-26 22:18:11,[107939|0]
121,2026-02-26 22:18:11,[107932|0]
122,2026-02-26 22:18:11,[107948|0]
123,2026-02-26 22:18:11,[107982|0]
124,2026-02-26 22:18:12,[107984|0]
125,2026-02-26 22:18:12,[107985|0]
126,2026-02-26 22:18:12,[107965|0]
127,2026-02-26 22:18:12,[107950|0]
128,2026-02-26 22:18:12,[107947|0]
129,2026-02-26 22:18:12,[107988|0]
130,2026-02-26 22:18:12,[108009|0]
131,2026-02-26 22:18:12,[108029|0]
132,2026-02-26 22:18:12,[108020|0]
133,2026-02-26 22:18:12,[108026|0]
134,2026-02-26 22:18:12,[108031|0]
135,2026-02-26 22:18:12,[108057|0]
136,2026-02-26 22:18:12,[108058|0]
137,2026-02-26 22:18:12,[108079|0]
138,2026-02-26 22:18:12,[108077|0]
139,2026-02-26 22:18:12,[107944|0]
140,2026-02-26 22:18:12,[107838|0]
141,2026-02-26 22:18:12,[107842|0]
142,2026-02-26 22:18:12,[107878|0]
143,2026-02-26 22:18:12,[107883|0]
144,2026-02-26 22:18:12,[107881|0]
145,2026-02-26 22:18:12,[107869|0]
146,2026-02-26 22:18:12,[107872|0]
147,2026-02-26 22:18:12,[107867|0]
148,2026-02-26 22:18:12,[107871|0]
149,2026-02-26 22:18:13,[107891|0]
150,2026-02-26 22:18:13,[107911|0]
151,2026-02-26 22:18:13,[107917|0]
152,2026-02-26 22:18:13,[107933|0]
153,2026-02-26 22:18:13,[107945|0]
154,2026-02-26 22:18:13,[107959|0]
155,2026-02-26 22:18:13,[107976|0]
156,2026-02-26 22:18:13,[107986|0]
157,2026-02-26 22:18:13,[107986|0]
158,2026-02-26 22:18:13,[108002|0]
159,2026-02-26 22:18:13,[107997|0]
160,2026-02-26 22:18:13,[107899|0]
161,2026-02-26 22:18:13,[107808|0]
162,2026-02-26 22:18:13,[107803|0]
163,2026-02-26 22:18:13,[107835|0]
164,2026-02-26 22:18:13,[107852|0]
165,2026-02-26 22:18:13,[107880|0]
166,2026-02-26 22:18:13,[107873|0]
167,2026-02-26 22:18:13,[107852|0]
168,2026-02-26 22:18:13,[107853|0]
169,2026-02-26 22:18:13,[107861|0]
170,2026-02-26 22:18:13,[107875|0]
171,2026-02-26 22:18:13,[107920|0]
172,2026-02-26 22:18:13,[107929|0]
173,2026-02-26 22:18:14,[107952|0]
174,2026-02-26 22:18:14,[107954|0]
175,2026-02-26 22:18:14,[107954|0]
176,2026-02-26 22:18:14,[107949|0]
177,2026-02-26 22:18:14,[107987|0]
178,2026-02-26 22:18:14,[108016|0]
179,2026-02-26 22:18:14,[108039|0]
180,2026-02-26 22:18:14,[107955|0]
181,2026-02-26 22:18:14,[107818|0]
182,2026-02-26 22:18:14,[107736|0]
183,2026-02-26 22:18:14,[107785|0]
184,2026-02-26 22:18:14,[107804|0]
185,2026-02-26 22:18:14,[107798|0]
186,2026-02-26 22:18:14,[107800|0]
187,2026-02-26 22:18:14,[107803|0]
188,2026-02-26 22:18:14,[107761|0]
189,2026-02-26 22:18:14,[107787|0]
190,2026-02-26 22:18:14,[107818|0]
191,2026-02-26 22:18:14,[107830|0]
192,2026-02-26 22:18:14,[107849|0]
193,2026-02-26 22:18:14,[107869|0]
194,2026-02-26 22:18:14,[107852|0]
195,2026-02-26 22:18:14,[107902|0]
196,2026-02-26 22:18:14,[107905|0]
197,2026-02-26 22:18:14,[107928|0]
198,2026-02-26 22:18:14,[107942|0]
199,2026-02-26 22:18:15,[107953|0]
200,2026-02-26 22:18:15,[107960|0]
201,2026-02-26 22:18:15,[107999|0]
202,2026-02-26 22:18:15,[107965|0]
203,2026-02-26 22:18:15,[107821|0]
204,2026-02-26 22:18:15,[107736|0]
205,2026-02-26 22:18:15,[107729|0]
206,2026-02-26 22:18:15,[107722|0]
207,2026-02-26 22:18:15,[107753|0]
208,2026-02-26 22:18:15,[107758|0]
209,2026-02-26 22:18:15,[107754|0]
210,2026-02-26 22:18:15,[107750|0]
211,2026-02-26 22:18:15,[107744|0]
212,2026-02-26 22:18:15,[107727|0]
213,2026-02-26 22:18:15,[107772|0]
214,2026-02-26 22:18:15,[107793|0]
215,2026-02-26 22:18:15,[107815|0]
216,2026-02-26 22:18:15,[107823|0]
217,2026-02-26 22:18:15,[107842|0]
218,2026-02-26 22:18:15,[107819|0]
219,2026-02-26 22:18:15,[107856|0]
220,2026-02-26 22:18:15,[107884|0]
221,2026-02-26 22:18:15,[107904|0]
222,2026-02-26 22:18:15,[107930|0]
223,2026-02-26 22:18:16,[107930|0]
224,2026-02-26 22:18:16,[107824|0]
225,2026-02-26 22:18:16,[107721|0]
226,2026-02-26 22:18:16,[107709|0]
227,2026-02-26 22:18:16,[107738|0]
228,2026-02-26 22:18:16,[107767|0]
229,2026-02-26 22:18:16,[107769|0]
230,2026-02-26 22:18:16,[107771|0]
231,2026-02-26 22:18:16,[107779|0]
232,2026-02-26 22:18:16,[107744|0]
233,2026-02-26 22:18:16,[107726|0]
234,2026-02-26 22:18:16,[107742|0]
235,2026-02-26 22:18:16,[107762|0]
236,2026-02-26 22:18:16,[107775|0]
237,2026-02-26 22:18:16,[107800|0]
238,2026-02-26 22:18:16,[107820|0]
239,2026-02-26 22:18:16,[107831|0]
240,2026-02-26 22:18:16,[107844|0]
241,2026-02-26 22:18:16,[107845|0]
242,2026-02-26 22:18:16,[107849|0]
243,2026-02-26 22:18:16,[107894|0]
244,2026-02-26 22:18:16,[107937|0]
245,2026-02-26 22:18:16,[107919|0]
246,2026-02-26 22:18:16,[107779|0]
247,2026-02-26 22:18:16,[107661|0]
248,2026-02-26 22:18:17,[107645|0]
249,2026-02-26 22:18:17,[107703|0]
250,2026-02-26 22:18:17,[107697|0]
251,2026-02-26 22:18:17,[107698|0]
252,2026-02-26 22:18:17,[107710|0]
253,2026-02-26 22:18:17,[107696|0]
254,2026-02-26 22:18:17,[107680|0]
255,2026-02-26 22:18:17,[107714|0]
256,2026-02-26 22:18:17,[107769|0]
257,2026-02-26 22:18:17,[107792|0]
258,2026-02-26 22:18:17,[107814|0]
259,2026-02-26 22:18:17,[107838|0]
260,2026-02-26 22:18:17,[107848|0]
261,2026-02-26 22:18:17,[107874|0]
262,2026-02-26 22:18:17,[107896|0]
263,2026-02-26 22:18:17,[107907|0]
264,2026-02-26 22:18:17,[107940|0]
265,2026-02-26 22:18:17,[107946|0]
266,2026-02-26 22:18:17,[107955|0]
267,2026-02-26 22:18:17,[107813|0]
268,2026-02-26 22:18:17,[107710|0]
269,2026-02-26 22:18:17,[107696|0]
270,2026-02-26 22:18:17,[107739|0]
271,2026-02-26 22:18:17,[107728|0]
272,2026-02-26 22:18:17,[107744|0]
273,2026-02-26 22:18:18,[107777|0]
274,2026-02-26 22:18:18,[107775|0]
275,2026-02-26 22:18:18,[107777|0]
276,2026-02-26 22:18:18,[107785|0]
277,2026-02-26 22:18:18,[107791|0]
278,2026-02-26 22:18:18,[107846|0]
279,2026-02-26 22:18:18,[107846|0]
280,2026-02-26 22:18:18,[107872|0]
281,2026-02-26 22:18:18,[107896|0]
282,2026-02-26 22:18:18,[107915|0]
283,2026-02-26 22:18:18,[107925|0]
284,2026-02-26 22:18:18,[107926|0]
285,2026-02-26 22:18:18,[107958|0]
286,2026-02-26 22:18:18,[108019|0]
287,2026-02-26 22:18:18,[108029|0]
288,2026-02-26 22:18:18,[108002|0]
289,2026-02-26 22:18:18,[107866|0]
290,2026-02-26 22:18:18,[107772|0]
291,2026-02-26 22:18:18,[107815|0]
292,2026-02-26 22:18:18,[107865|0]
293,2026-02-26 22:18:18,[107886|0]
294,2026-02-26 22:18:18,[107913|0]
295,2026-02-26 22:18:18,[107914|0]
296,2026-02-26 22:18:18,[107882|0]
297,2026-02-26 22:18:18,[107903|0]
298,2026-02-26 22:18:19,[107935|0]
299,2026-02-26 22:18:19,[107959|0]
300,2026-02-26 22:18:19,[107996|0]
301,2026-02-26 22:18:19,[108010|0]
302,2026-02-26 22:18:19,[107997|0]
303,2026-02-26 22:18:19,[108036|0]
304,2026-02-26 22:18:19,[108060|0]
305,2026-02-26 22:18:19,[108071|0]
306,2026-02-26 22:18:19,[108087|0]
307,2026-02-26 22:18:19,[108112|0]
308,2026-02-26 22:18:19,[108112|0]
309,2026-02-26 22:18:19,[108145|0]
310,2026-02-26 22:18:19,[108055|0]
311,2026-02-26 22:18:19,[107940|0]
312,2026-02-26 22:18:19,[107937|0]
313,2026-02-26 22:18:19,[107997|0]
314,2026-02-26 22:18:19,[107998|0]
315,2026-02-26 22:18:19,[108037|0]
316,2026-02-26 22:18:19,[108046|0]
317,2026-02-26 22:18:19,[108040|0]
318,2026-02-26 22:18:19,[108031|0]
319,2026-02-26 22:18:19,[108046|0]
320,2026-02-26 22:18:19,[108059|0]
321,2026-02-26 22:18:19,[108106|0]
322,2026-02-26 22:18:19,[108127|0]
323,2026-02-26 22:18:20,[108141|0]
324,2026-02-26 22:18:20,[108152|0]
325,2026-02-26 22:18:20,[108158|0]
326,2026-02-26 22:18:20,[108154|0]
327,2026-02-26 22:18:20,[108190|0]
328,2026-02-26 22:18:20,[108215|0]
329,2026-02-26 22:18:20,[108131|0]
330,2026-02-26 22:18:20,[108007|0]
331,2026-02-26 22:18:20,[107982|0]
332,2026-02-26 22:18:20,[108002|0]
333,2026-02-26 22:18:20,[108068|0]
334,2026-02-26 22:18:20,[108103|0]
335,2026-02-26 22:18:20,[108114|0]
336,2026-02-26 22:18:20,[108101|0]
337,2026-02-26 22:18:20,[108086|0]
338,2026-02-26 22:18:20,[108071|0]
339,2026-02-26 22:18:20,[108121|0]
340,2026-02-26 22:18:20,[108153|0]
341,2026-02-26 22:18:20,[108171|0]
342,2026-02-26 22:18:20,[108181|0]
343,2026-02-26 22:18:20,[108190|0]
344,2026-02-26 22:18:20,[108166|0]
345,2026-02-26 22:18:20,[108198|0]
346,2026-02-26 22:18:20,[108212|0]
347,2026-02-26 22:18:20,[108262|0]
348,2026-02-26 22:18:20,[108239|0]
349,2026-02-26 22:18:21,[108101|0]
350,2026-02-26 22:18:21,[108007|0]
351,2026-02-26 22:18:21,[108032|0]
352,2026-02-26 22:18:21,[108091|0]
353,2026-02-26 22:18:21,[108127|0]
354,2026-02-26 22:18:21,[108133|0]
355,2026-02-26 22:18:21,[108130|0]
356,2026-02-26 22:18:21,[108092|0]
357,2026-02-26 22:18:21,[108106|0]
358,2026-02-26 22:18:21,[108125|0]
359,2026-02-26 22:18:21,[108158|0]
360,2026-02-26 22:18:21,[108174|0]
361,2026-02-26 22:18:21,[108183|0]
362,2026-02-26 22:18:21,[108183|0]
363,2026-02-26 22:18:21,[108210|0]
364,2026-02-26 22:18:21,[108209|0]
365,2026-02-26 22:18:21,[108218|0]
366,2026-02-26 22:18:21,[108235|0]
367,2026-02-26 22:18:21,[108253|0]
368,2026-02-26 22:18:21,[108246|0]
369,2026-02-26 22:18:21,[108161|0]
370,2026-02-26 22:18:21,[108048|0]
371,2026-02-26 22:18:21,[108049|0]
372,2026-02-26 22:18:21,[108104|0]
373,2026-02-26 22:18:21,[108140|0]
374,2026-02-26 22:18:22,[108143|0]
375,2026-02-26 22:18:22,[108150|0]
376,2026-02-26 22:18:22,[108121|0]
377,2026-02-26 22:18:22,[108113|0]
378,2026-02-26 22:18:22,[108149|0]
379,2026-02-26 22:18:22,[108146|0]
380,2026-02-26 22:18:22,[108168|0]
381,2026-02-26 22:18:22,[108193|0]
382,2026-02-26 22:18:22,[108198|0]
383,2026-02-26 22:18:22,[108217|0]
384,2026-02-26 22:18:22,[108210|0]
385,2026-02-26 22:18:22,[108214|0]
386,2026-02-26 22:18:22,[108229|0]
387,2026-02-26 22:18:22,[108194|0]
388,2026-02-26 22:18:22,[108054|0]
389,2026-02-26 22:18:22,[108012|0]
390,2026-02-26 22:18:22,[108051|0]
391,2026-02-26 22:18:22,[108079|0]
392,2026-02-26 22:18:22,[108114|0]
393,2026-02-26 22:18:22,[108138|0]
394,2026-02-26 22:18:22,[108113|0]
395,2026-02-26 22:18:22,[108088|0]
396,2026-02-26 22:18:22,[108085|0]
397,2026-02-26 22:18:22,[108098|0]
398,2026-02-26 22:18:23,[108129|0]
399,2026-02-26 22:18:23,[108157|0]
400,2026-02-26 22:18:23,[108165|0]
401,2026-02-26 22:18:23,[108165|0]
402,2026-02-26 22:18:23,[108173|0]
403,2026-02-26 22:18:23,[108181|0]
404,2026-02-26 22:18:23,[108160|0]
405,2026-02-26 22:18:23,[108174|0]
406,2026-02-26 22:18:23,[108204|0]
407,2026-02-26 22:18:23,[108198|0]
408,2026-02-26 22:18:23,[108077|0]
409,2026-02-26 22:18:23,[107951|0]
410,2026-02-26 22:18:23,[107952|0]
411,2026-02-26 22:18:23,[108023|0]
412,2026-02-26 22:18:23,[108043|0]
413,2026-02-26 22:18:23,[108044|0]
414,2026-02-26 22:18:23,[108041|0]
415,2026-02-26 22:18:23,[108022|0]
416,2026-02-26 22:18:23,[107994|0]
417,2026-02-26 22:18:23,[108014|0]
418,2026-02-26 22:18:23,[108051|0]
419,2026-02-26 22:18:23,[108073|0]
420,2026-02-26 22:18:23,[108085|0]
421,2026-02-26 22:18:23,[108100|0]
422,2026-02-26 22:18:23,[108062|0]
423,2026-02-26 22:18:23,[108095|0]
424,2026-02-26 22:18:24,[108099|0]
425,2026-02-26 22:18:24,[108121|0]
426,2026-02-26 22:18:24,[108134|0]
427,2026-02-26 22:18:24,[108117|0]
428,2026-02-26 22:18:24,[107933|0]
429,2026-02-26 22:18:24,[107865|0]
430,2026-02-26 22:18:24,[107879|0]
431,2026-02-26 22:18:24,[107931|0]
432,2026-02-26 22:18:24,[107956|0]
433,2026-02-26 22:18:24,[107962|0]
434,2026-02-26 22:18:24,[107913|0]
435,2026-02-26 22:18:24,[107906|0]
436,2026-02-26 22:18:24,[107910|0]
437,2026-02-26 22:18:24,[107912|0]
438,2026-02-26 22:18:24,[107950|0]
439,2026-02-26 22:18:24,[107951|0]
440,2026-02-26 22:18:24,[107948|0]
441,2026-02-26 22:18:24,[107970|0]
442,2026-02-26 22:18:24,[107974|0]
443,2026-02-26 22:18:24,[107963|0]
444,2026-02-26 22:18:24,[107992|0]
445,2026-02-26 22:18:24,[108008|0]
446,2026-02-26 22:18:24,[107991|0]
447,2026-02-26 22:18:24,[107902|0]
448,2026-02-26 22:18:25,[107772|0]
449,2026-02-26 22:18:25,[107764|0]
450,2026-02-26 22:18:25,[107811|0]
451,2026-02-26 22:18:25,[107842|0]
452,2026-02-26 22:18:25,[107823|0]
453,2026-02-26 22:18:25,[107848|0]
454,2026-02-26 22:18:25,[107818|0]
455,2026-02-26 22:18:25,[107803|0]
456,2026-02-26 22:18:25,[107821|0]
457,2026-02-26 22:18:25,[107842|0]
458,2026-02-26 22:18:25,[107842|0]
459,2026-02-26 22:18:25,[107881|0]
460,2026-02-26 22:18:25,[107886|0]
461,2026-02-26 22:18:25,[107898|0]
462,2026-02-26 22:18:25,[107896|0]
463,2026-02-26 22:18:25,[107908|0]
464,2026-02-26 22:18:25,[107882|0]
465,2026-02-26 22:18:25,[107936|0]
466,2026-02-26 22:18:25,[107942|0]
467,2026-02-26 22:18:25,[107804|0]
468,2026-02-26 22:18:25,[107664|0]
469,2026-02-26 22:18:25,[107656|0]
470,2026-02-26 22:18:25,[107674|0]
471,2026-02-26 22:18:25,[107713|0]
472,2026-02-26 22:18:25,[107707|0]
473,2026-02-26 22:18:26,[107721|0]
474,2026-02-26 22:18:26,[107704|0]
475,2026-02-26 22:18:26,[107685|0]
476,2026-02-26 22:18:26,[107671|0]
477,2026-02-26 22:18:26,[107712|0]
478,2026-02-26 22:18:26,[107732|0]
479,2026-02-26 22:18:26,[107745|0]
480,2026-02-26 22:18:26,[107766|0]
481,2026-02-26 22:18:26,[107765|0]
482,2026-02-26 22:18:26,[107756|0]
483,2026-02-26 22:18:26,[107779|0]
484,2026-02-26 22:18:26,[107798|0]
485,2026-02-26 22:18:26,[107811|0]
486,2026-02-26 22:18:26,[107832|0]
487,2026-02-26 22:18:26,[107852|0]
488,2026-02-26 22:18:26,[107753|0]
489,2026-02-26 22:18:26,[107601|0]
490,2026-02-26 22:18:26,[107556|0]
491,2026-02-26 22:18:26,[107588|0]
492,2026-02-26 22:18:26,[107627|0]
493,2026-02-26 22:18:26,[107611|0]
494,2026-02-26 22:18:26,[107607|0]
495,2026-02-26 22:18:26,[107613|0]
496,2026-02-26 22:18:26,[107608|0]
497,2026-02-26 22:18:26,[107590|0]
498,2026-02-26 22:18:26,[107616|0]
499,2026-02-26 22:18:27,[107629|0]
500,2026-02-26 22:18:27,[107653|0]
501,2026-02-26 22:18:27,[107694|0]
502,2026-02-26 22:18:27,[107700|0]
503,2026-02-26 22:18:27,[107708|0]
504,2026-02-26 22:18:27,[107729|0]
505,2026-02-26 22:18:27,[107745|0]
506,2026-02-26 22:18:27,[107754|0]
507,2026-02-26 22:18:27,[107790|0]
508,2026-02-26 22:18:27,[107812|0]
509,2026-02-26 22:18:27,[107829|0]
510,2026-02-26 22:18:27,[107792|0]
511,2026-02-26 22:18:27,[107602|0]
512,2026-02-26 22:18:27,[107531|0]
513,2026-02-26 22:18:27,[107569|0]
514,2026-02-26 22:18:27,[107618|0]
515,2026-02-26 22:18:27,[107635|0]
516,2026-02-26 22:18:27,[107645|0]
517,2026-02-26 22:18:27,[107610|0]
518,2026-02-26 22:18:27,[107592|0]
519,2026-02-26 22:18:27,[107604|0]
520,2026-02-26 22:18:27,[107629|0]
521,2026-02-26 22:18:27,[107656|0]
522,2026-02-26 22:18:27,[107656|0]
523,2026-02-26 22:18:28,[107692|0]
524,2026-02-26 22:18:28,[107685|0]
525,2026-02-26 22:18:28,[107712|0]
526,2026-02-26 22:18:28,[107740|0]
527,2026-02-26 22:18:28,[107748|0]
528,2026-02-26 22:18:28,[107770|0]
529,2026-02-26 22:18:28,[107804|0]
530,2026-02-26 22:18:28,[107792|0]
531,2026-02-26 22:18:28,[107832|0]
532,2026-02-26 22:18:28,[107838|0]
533,2026-02-26 22:18:28,[107668|0]
534,2026-02-26 22:18:28,[107567|0]
535,2026-02-26 22:18:28,[107552|0]
536,2026-02-26 22:18:28,[107586|0]
537,2026-02-26 22:18:28,[107623|0]
538,2026-02-26 22:18:28,[107623|0]
539,2026-02-26 22:18:28,[107639|0]
540,2026-02-26 22:18:28,[107621|0]
541,2026-02-26 22:18:28,[107607|0]
542,2026-02-26 22:18:28,[107601|0]
543,2026-02-26 22:18:28,[107659|0]
544,2026-02-26 22:18:28,[107683|0]
545,2026-02-26 22:18:28,[107718|0]
546,2026-02-26 22:18:28,[107743|0]
547,2026-02-26 22:18:28,[107752|0]
548,2026-02-26 22:18:29,[107734|0]
549,2026-02-26 22:18:29,[107770|0]
550,2026-02-26 22:18:29,[107792|0]
551,2026-02-26 22:18:29,[107812|0]
552,2026-02-26 22:18:29,[107839|0]
553,2026-02-26 22:18:29,[107861|0]
554,2026-02-26 22:18:29,[107852|0]
555,2026-02-26 22:18:29,[107736|0]
556,2026-02-26 22:18:29,[107583|0]
557,2026-02-26 22:18:29,[107555|0]
558,2026-02-26 22:18:29,[107591|0]
559,2026-02-26 22:18:29,[107646|0]
560,2026-02-26 22:18:29,[107598|0]
561,2026-02-26 22:18:29,[107639|0]
562,2026-02-26 22:18:29,[107628|0]
563,2026-02-26 22:18:29,[107608|0]
564,2026-02-26 22:18:29,[107631|0]
565,2026-02-26 22:18:29,[107660|0]
566,2026-02-26 22:18:29,[107666|0]
567,2026-02-26 22:18:29,[107716|0]
568,2026-02-26 22:18:29,[107743|0]
569,2026-02-26 22:18:29,[107759|0]
570,2026-02-26 22:18:29,[107768|0]
571,2026-02-26 22:18:29,[107776|0]
572,2026-02-26 22:18:29,[107769|0]
573,2026-02-26 22:18:29,[107818|0]
574,2026-02-26 22:18:30,[107841|0]
575,2026-02-26 22:18:30,[107865|0]
576,2026-02-26 22:18:30,[107833|0]
577,2026-02-26 22:18:30,[107667|0]
578,2026-02-26 22:18:30,[107556|0]
579,2026-02-26 22:18:30,[107608|0]
580,2026-02-26 22:18:30,[107671|0]
581,2026-02-26 22:18:30,[107707|0]
582,2026-02-26 22:18:30,[107724|0]
583,2026-02-26 22:18:30,[107711|0]
584,2026-02-26 22:18:30,[107652|0]
585,2026-02-26 22:18:30,[107667|0]
586,2026-02-26 22:18:30,[107710|0]
587,2026-02-26 22:18:30,[107732|0]
588,2026-02-26 22:18:30,[107761|0]
589,2026-02-26 22:18:30,[107805|0]
590,2026-02-26 22:18:30,[107771|0]
591,2026-02-26 22:18:30,[107817|0]
592,2026-02-26 22:18:30,[107824|0]
593,2026-02-26 22:18:30,[107846|0]
594,2026-02-26 22:18:30,[107870|0]
595,2026-02-26 22:18:30,[107825|0]
596,2026-02-26 22:18:30,[107641|0]
597,2026-02-26 22:18:30,[107593|0]
598,2026-02-26 22:18:31,[107604|0]
599,2026-02-26 22:18:31,[107663|0]
600,2026-02-26 22:18:31,[107689|0]
601,2026-02-26 22:18:31,[107699|0]
602,2026-02-26 22:18:31,[107668|0]
603,2026-02-26 22:18:31,[107667|0]
604,2026-02-26 22:18:31,[107667|0]
605,2026-02-26 22:18:31,[107700|0]
606,2026-02-26 22:18:31,[107736|0]
607,2026-02-26 22:18:31,[107752|0]
608,2026-02-26 22:18:31,[107767|0]
609,2026-02-26 22:18:31,[107796|0]
610,2026-02-26 22:18:31,[107804|0]
611,2026-02-26 22:18:31,[107816|0]
612,2026-02-26 22:18:31,[107835|0]
613,2026-02-26 22:18:31,[107848|0]
614,2026-02-26 22:18:31,[107854|0]
615,2026-02-26 22:18:31,[107737|0]
616,2026-02-26 22:18:31,[107582|0]
617,2026-02-26 22:18:31,[107539|0]
618,2026-02-26 22:18:31,[107577|0]
619,2026-02-26 22:18:31,[107601|0]
620,2026-02-26 22:18:31,[107575|0]
621,2026-02-26 22:18:31,[107610|0]
622,2026-02-26 22:18:31,[107612|0]
623,2026-02-26 22:18:32,[107603|0]
624,2026-02-26 22:18:32,[107608|0]
625,2026-02-26 22:18:32,[107621|0]
626,2026-02-26 22:18:32,[107653|0]
627,2026-02-26 22:18:32,[107687|0]
628,2026-02-26 22:18:32,[107698|0]
629,2026-02-26 22:18:32,[107715|0]
630,2026-02-26 22:18:32,[107723|0]
631,2026-02-26 22:18:32,[107721|0]
632,2026-02-26 22:18:32,[107731|0]
633,2026-02-26 22:18:32,[107784|0]
634,2026-02-26 22:18:32,[107802|0]
635,2026-02-26 22:18:32,[107751|0]
636,2026-02-26 22:18:32,[107570|0]
637,2026-02-26 22:18:32,[107459|0]
638,2026-02-26 22:18:32,[107477|0]
639,2026-02-26 22:18:32,[107521|0]
640,2026-02-26 22:18:32,[107523|0]
641,2026-02-26 22:18:32,[107532|0]
642,2026-02-26 22:18:32,[107532|0]
643,2026-02-26 22:18:32,[107533|0]
644,2026-02-26 22:18:32,[107496|0]
645,2026-02-26 22:18:32,[107513|0]
646,2026-02-26 22:18:32,[107531|0]
647,2026-02-26 22:18:32,[107544|0]
648,2026-02-26 22:18:32,[107568|0]
649,2026-02-26 22:18:33,[107614|0]
650,2026-02-26 22:18:33,[107589|0]
651,2026-02-26 22:18:33,[107609|0]
652,2026-02-26 22:18:33,[107631|0]
653,2026-02-26 22:18:33,[107646|0]
654,2026-02-26 22:18:33,[107677|0]
655,2026-02-26 22:18:33,[107698|0]
656,2026-02-26 22:18:33,[107682|0]
657,2026-02-26 22:18:33,[107568|0]
658,2026-02-26 22:18:33,[107445|0]
659,2026-02-26 22:18:33,[107440|0]
660,2026-02-26 22:18:33,[107484|0]
661,2026-02-26 22:18:33,[107510|0]
662,2026-02-26 22:18:33,[107494|0]
663,2026-02-26 22:18:33,[107531|0]
664,2026-02-26 22:18:33,[107500|0]
665,2026-02-26 22:18:33,[107498|0]
666,2026-02-26 22:18:33,[107521|0]
667,2026-02-26 22:18:33,[107545|0]
668,2026-02-26 22:18:33,[107550|0]
669,2026-02-26 22:18:33,[107601|0]
670,2026-02-26 22:18:33,[107626|0]
671,2026-02-26 22:18:33,[107637|0]
672,2026-02-26 22:18:33,[107643|0]
673,2026-02-26 22:18:34,[107657|0]
674,2026-02-26 22:18:34,[107649|0]
675,2026-02-26 22:18:34,[107698|0]
676,2026-02-26 22:18:34,[107726|0]
677,2026-02-26 22:18:34,[107693|0]
678,2026-02-26 22:18:34,[107515|0]
679,2026-02-26 22:18:34,[107437|0]
680,2026-02-26 22:18:34,[107413|0]
681,2026-02-26 22:18:34,[107468|0]
682,2026-02-26 22:18:34,[107465|0]
683,2026-02-26 22:18:34,[107477|0]
684,2026-02-26 22:18:34,[107485|0]
685,2026-02-26 22:18:34,[107471|0]
686,2026-02-26 22:18:34,[107443|0]
687,2026-02-26 22:18:34,[107467|0]
688,2026-02-26 22:18:34,[107490|0]
689,2026-02-26 22:18:34,[107511|0]
690,2026-02-26 22:18:34,[107514|0]
691,2026-02-26 22:18:34,[107532|0]
692,2026-02-26 22:18:34,[107496|0]
693,2026-02-26 22:18:34,[107535|0]
694,2026-02-26 22:18:34,[107556|0]
695,2026-02-26 22:18:34,[107578|0]
696,2026-02-26 22:18:34,[107600|0]
697,2026-02-26 22:18:34,[107630|0]
698,2026-02-26 22:18:35,[107610|0]
699,2026-02-26 22:18:35,[107664|0]
700,2026-02-26 22:18:35,[107663|0]
701,2026-02-26 22:18:35,[107510|0]
702,2026-02-26 22:18:35,[107366|0]
703,2026-02-26 22:18:35,[107329|0]
704,2026-02-26 22:18:35,[107341|0]
705,2026-02-26 22:18:35,[107369|0]
706,2026-02-26 22:18:35,[107363|0]
707,2026-02-26 22:18:35,[107366|0]
708,2026-02-26 22:18:35,[107353|0]
709,2026-02-26 22:18:35,[107371|0]
710,2026-02-26 22:18:35,[107343|0]
711,2026-02-26 22:18:35,[107373|0]
712,2026-02-26 22:18:35,[107392|0]
713,2026-02-26 22:18:35,[107418|0]
714,2026-02-26 22:18:35,[107437|0]
715,2026-02-26 22:18:35,[107453|0]
716,2026-02-26 22:18:35,[107440|0]
717,2026-02-26 22:18:35,[107477|0]
718,2026-02-26 22:18:35,[107495|0]
719,2026-02-26 22:18:35,[107514|0]
720,2026-02-26 22:18:35,[107539|0]
721,2026-02-26 22:18:35,[107554|0]
722,2026-02-26 22:18:35,[107561|0]
723,2026-02-26 22:18:35,[107600|0]
724,2026-02-26 22:18:36,[107496|0]
725,2026-02-26 22:18:36,[107351|0]
726,2026-02-26 22:18:36,[107322|0]
727,2026-02-26 22:18:36,[107346|0]
728,2026-02-26 22:18:36,[107378|0]
729,2026-02-26 22:18:36,[107409|0]
730,2026-02-26 22:18:36,[107425|0]
731,2026-02-26 22:18:36,[107404|0]
732,2026-02-26 22:18:36,[107384|0]
733,2026-02-26 22:18:36,[107386|0]
734,2026-02-26 22:18:36,[107412|0]
735,2026-02-26 22:18:36,[107463|0]
736,2026-02-26 22:18:36,[107488|0]
737,2026-02-26 22:18:36,[107502|0]
738,2026-02-26 22:18:36,[107516|0]
739,2026-02-26 22:18:36,[107537|0]
740,2026-02-26 22:18:36,[107533|0]
741,2026-02-26 22:18:36,[107567|0]
742,2026-02-26 22:18:36,[107609|0]
743,2026-02-26 22:18:36,[107626|0]
744,2026-02-26 22:18:36,[107640|0]
745,2026-02-26 22:18:36,[107650|0]
746,2026-02-26 22:18:36,[107679|0]
747,2026-02-26 22:18:36,[107659|0]
748,2026-02-26 22:18:36,[107477|0]
749,2026-02-26 22:18:37,[107363|0]
750,2026-02-26 22:18:37,[107369|0]
751,2026-02-26 22:18:37,[107399|0]
752,2026-02-26 22:18:37,[107408|0]
753,2026-02-26 22:18:37,[107418|0]
754,2026-02-26 22:18:37,[107437|0]
755,2026-02-26 22:18:37,[107430|0]
756,2026-02-26 22:18:37,[107432|0]
757,2026-02-26 22:18:37,[107415|0]
758,2026-02-26 22:18:37,[107456|0]
759,2026-02-26 22:18:37,[107501|0]
760,2026-02-26 22:18:37,[107520|0]
761,2026-02-26 22:18:37,[107550|0]
762,2026-02-26 22:18:37,[107550|0]
763,2026-02-26 22:18:37,[107554|0]
764,2026-02-26 22:18:37,[107555|0]
765,2026-02-26 22:18:37,[107595|0]
766,2026-02-26 22:18:37,[107622|0]
767,2026-02-26 22:18:37,[107646|0]
768,2026-02-26 22:18:37,[107672|0]
769,2026-02-26 22:18:37,[107706|0]
770,2026-02-26 22:18:37,[107712|0]
771,2026-02-26 22:18:37,[107732|0]
772,2026-02-26 22:18:37,[107765|0]
773,2026-02-26 22:18:38,[107730|0]
774,2026-02-26 22:18:38,[107552|0]
775,2026-02-26 22:18:38,[107451|0]
776,2026-02-26 22:18:38,[107434|0]
777,2026-02-26 22:18:38,[107503|0]
778,2026-02-26 22:18:38,[107525|0]
779,2026-02-26 22:18:38,[107531|0]
780,2026-02-26 22:18:38,[107549|0]
781,2026-02-26 22:18:38,[107539|0]
782,2026-02-26 22:18:38,[107502|0]
783,2026-02-26 22:18:38,[107546|0]
784,2026-02-26 22:18:38,[107586|0]
785,2026-02-26 22:18:38,[107618|0]
786,2026-02-26 22:18:38,[107649|0]
787,2026-02-26 22:18:38,[107673|0]
788,2026-02-26 22:18:38,[107659|0]
789,2026-02-26 22:18:38,[107705|0]
790,2026-02-26 22:18:38,[107726|0]
791,2026-02-26 22:18:38,[107750|0]
792,2026-02-26 22:18:38,[107772|0]
793,2026-02-26 22:18:38,[107799|0]
794,2026-02-26 22:18:38,[107790|0]
795,2026-02-26 22:18:38,[107844|0]
796,2026-02-26 22:18:38,[107858|0]
797,2026-02-26 22:18:38,[107702|0]
798,2026-02-26 22:18:38,[107560|0]
799,2026-02-26 22:18:39,[107556|0]
800,2026-02-26 22:18:39,[107576|0]
801,2026-02-26 22:18:39,[107638|0]
802,2026-02-26 22:18:39,[107646|0]
803,2026-02-26 22:18:39,[107679|0]
804,2026-02-26 22:18:39,[107654|0]
805,2026-02-26 22:18:39,[107637|0]
806,2026-02-26 22:18:39,[107632|0]
807,2026-02-26 22:18:39,[107678|0]
808,2026-02-26 22:18:39,[107720|0]
809,2026-02-26 22:18:39,[107757|0]
810,2026-02-26 22:18:39,[107791|0]
811,2026-02-26 22:18:39,[107813|0]
812,2026-02-26 22:18:39,[107786|0]
813,2026-02-26 22:18:39,[107836|0]
814,2026-02-26 22:18:39,[107854|0]
815,2026-02-26 22:18:39,[107868|0]
816,2026-02-26 22:18:39,[107889|0]
817,2026-02-26 22:18:39,[107918|0]
818,2026-02-26 22:18:39,[107919|0]
819,2026-02-26 22:18:39,[107880|0]
820,2026-02-26 22:18:39,[107673|0]
821,2026-02-26 22:18:39,[107598|0]
822,2026-02-26 22:18:39,[107616|0]
823,2026-02-26 22:18:40,[107679|0]
824,2026-02-26 22:18:40,[107668|0]
825,2026-02-26 22:18:40,[107701|0]
826,2026-02-26 22:18:40,[107706|0]
827,2026-02-26 22:18:40,[107687|0]
828,2026-02-26 22:18:40,[107685|0]
829,2026-02-26 22:18:40,[107723|0]
830,2026-02-26 22:18:40,[107732|0]
831,2026-02-26 22:18:40,[107777|0]
832,2026-02-26 22:18:40,[107813|0]
833,2026-02-26 22:18:40,[107829|0]
834,2026-02-26 22:18:40,[107837|0]
835,2026-02-26 22:18:40,[107839|0]
836,2026-02-26 22:18:40,[107825|0]
837,2026-02-26 22:18:40,[107860|0]
838,2026-02-26 22:18:40,[107891|0]
839,2026-02-26 22:18:40,[107926|0]
840,2026-02-26 22:18:40,[107903|0]
841,2026-02-26 22:18:40,[107726|0]
842,2026-02-26 22:18:40,[107588|0]
843,2026-02-26 22:18:40,[107624|0]
844,2026-02-26 22:18:40,[107679|0]
845,2026-02-26 22:18:40,[107712|0]
846,2026-02-26 22:18:40,[107725|0]
847,2026-02-26 22:18:40,[107719|0]
848,2026-02-26 22:18:41,[107673|0]
849,2026-02-26 22:18:41,[107682|0]
850,2026-02-26 22:18:41,[107709|0]
851,2026-02-26 22:18:41,[107739|0]
852,2026-02-26 22:18:41,[107775|0]
853,2026-02-26 22:18:41,[107785|0]
854,2026-02-26 22:18:41,[107788|0]
855,2026-02-26 22:18:41,[107807|0]
856,2026-02-26 22:18:41,[107818|0]
857,2026-02-26 22:18:41,[107832|0]
858,2026-02-26 22:18:41,[107855|0]
859,2026-02-26 22:18:41,[107871|0]
860,2026-02-26 22:18:41,[107881|0]
861,2026-02-26 22:18:41,[107738|0]
862,2026-02-26 22:18:41,[107583|0]
863,2026-02-26 22:18:41,[107552|0]
864,2026-02-26 22:18:41,[107600|0]
865,2026-02-26 22:18:41,[107608|0]
866,2026-02-26 22:18:41,[107603|0]
867,2026-02-26 22:18:41,[107632|0]
868,2026-02-26 22:18:41,[107620|0]
869,2026-02-26 22:18:41,[107609|0]
870,2026-02-26 22:18:41,[107609|0]
871,2026-02-26 22:18:41,[107617|0]
872,2026-02-26 22:18:41,[107658|0]
873,2026-02-26 22:18:41,[107698|0]
874,2026-02-26 22:18:42,[107719|0]
875,2026-02-26 22:18:42,[107730|0]
876,2026-02-26 22:18:42,[107735|0]
877,2026-02-26 22:18:42,[107732|0]
878,2026-02-26 22:18:42,[107753|0]
879,2026-02-26 22:18:42,[107795|0]
880,2026-02-26 22:18:42,[107811|0]
881,2026-02-26 22:18:42,[107842|0]
882,2026-02-26 22:18:42,[107739|0]
883,2026-02-26 22:18:42,[107739|0]
884,2026-02-26 22:18:42,[107535|0]
885,2026-02-26 22:18:42,[107486|0]
886,2026-02-26 22:18:42,[107533|0]
887,2026-02-26 22:18:42,[107566|0]
888,2026-02-26 22:18:42,[107569|0]
889,2026-02-26 22:18:42,[107574|0]
