Packet_Number,Timestamp,Data
1,2026-02-26 22:18:07,[-295.97069597069594|-265.9340659340659|-309.8901098901099|-252.74725274725276|-295.23809523809524]
2,2026-02-26 22:18:07,[-265.9340659340659|-238.0952380952381|-284.98168498168496|-220.51282051282053|-264.46886446886447]
3,2026-02-26 22:18:07,[-250.54945054945054|-229.3040293040293|-274.72527472527474|-218.3150183150183|-264.46886446886447]
4,2026-02-26 22:18:07,[-261.53846153846155|-227.1062271062271|-284.98168498168496|-235.16483516483515|-277.65567765567766]
5,2026-02-26 22:18:07,[-254.21245421245422|-220.51282051282053|-275.45787545787545|-217.58241758241758|-249.08424908424908]
6,2026-02-26 22:18:07,[-235.16483516483515|-205.86080586080587|-251.28205128205127|-189.01098901098902|-223.44322344322345]
7,2026-02-26 22:18:07,[-218.3150183150183|-188.2783882783883|-238.0952380952381|-180.95238095238096|-213.1868131868132]
8,2026-02-26 22:18:07,[-238.82783882783883|-154.57875457875457|-247.61904761904762|-219.04761904761904|-166.3003663003663]
9,2026-02-26 22:18:07,[-284.24908424908426|-161.9047619047619|-219.78021978021977|-161.17216117216117|-84.24908424908425]
10,2026-02-26 22:18:07,[-246.15384615384616|-115.75091575091575|-258.6080586080586|-264.46886446886447|-161.17216117216117]
11,2026-02-26 22:18:07,[-324.54212454212455|-135.53113553113553|-243.2234432234432|-264.46886446886447|-123.07692307692308]
12,2026-02-26 22:18:07,[-129.67032967032966|646.8864468864468|1499.6336996336997|1499.6336996336997|92.3076923076923]
13,2026-02-26 22:18:07,[-965.5677655677656|-636.6300366300367|-414.65201465201466|-255.67765567765568|-94.50549450549451]
14,2026-02-26 22:18:07,[-287.1794871794872|-80.58608058608058|-161.17216117216117|-170.6959706959707|-17.582417582417584]
15,2026-02-26 22:18:07,[-215.3846153846154|-4.395604395604396|-84.98168498168498|-106.22710622710623|64.46886446886447]
16,2026-02-26 22:18:07,[-123.80952380952381|97.43589743589743|28.571428571428573|28.571428571428573|202.1978021978022]
17,2026-02-26 22:18:07,[43.223443223443226|241.02564102564102|224.9084249084249|274.72527472527474|418.31501831501834]
18,2026-02-26 22:18:07,[346.5201465201465|525.2747252747253|464.46886446886447|474.72527472527474|546.5201465201466]
19,2026-02-26 22:18:07,[372.8937728937729|432.967032967033|230.76923076923077|102.56410256410257|56.41025641025641]
20,2026-02-26 22:18:07,[-173.62637362637363|-117.94871794871794|-252.74725274725276|-293.7728937728938|-216.11721611721612]
21,2026-02-26 22:18:07,[-386.8131868131868|-242.49084249084248|-314.2857142857143|-312.0879120879121|-213.91941391941393]
22,2026-02-26 22:18:07,[-359.7069597069597|-202.93040293040292|-286.4468864468864|-293.040293040293|-180.95238095238096]
23,2026-02-26 22:18:08,[-334.7985347985348|-179.48717948717947|-258.6080586080586|-264.46886446886447|-170.6959706959707]
24,2026-02-26 22:18:08,[-324.54212454212455|-172.8937728937729|-252.74725274725276|-267.3992673992674|-167.76556776556777]
25,2026-02-26 22:18:08,[-342.85714285714283|-188.2783882783883|-259.34065934065933|-271.79487179487177|-166.3003663003663]
26,2026-02-26 22:18:08,[-336.996336996337|-180.95238095238096|-254.21245421245422|-267.3992673992674|-153.1135531135531]
27,2026-02-26 22:18:08,[-309.15750915750914|-153.1135531135531|-226.37362637362637|-242.49084249084248|-126.73992673992674]
28,2026-02-26 22:18:08,[-293.7728937728938|-132.6007326007326|-204.3956043956044|-205.86080586080587|-99.63369963369964]
29,2026-02-26 22:18:08,[-250.54945054945054|-63.73626373626374|-123.80952380952381|-152.38095238095238|-48.35164835164835]
30,2026-02-26 22:18:08,[-260.8058608058608|-123.80952380952381|-197.06959706959708|-213.1868131868132|-75.45787545787546]
31,2026-02-26 22:18:08,[-266.6666666666667|-98.9010989010989|-166.3003663003663|-67.3992673992674|460.8058608058608]
32,2026-02-26 22:18:08,[1230.03663003663|1499.6336996336997|606.5934065934066|-677.6556776556777|-695.2380952380952]
33,2026-02-26 22:18:08,[-595.6043956043956|-182.41758241758242|-158.97435897435898|-183.88278388278388|-27.83882783882784]
34,2026-02-26 22:18:08,[-208.7912087912088|-25.641025641025642|-86.44688644688645|-109.89010989010988|54.94505494505494]
35,2026-02-26 22:18:08,[-141.3919413919414|31.501831501831504|-12.454212454212454|-35.8974358974359|148.71794871794873]
36,2026-02-26 22:18:08,[-49.08424908424909|150.91575091575092|122.34432234432235|103.2967032967033|297.43589743589746]
37,2026-02-26 22:18:08,[134.7985347985348|372.8937728937729|384.61538461538464|358.24175824175825|577.2893772893773]
38,2026-02-26 22:18:08,[383.1501831501831|567.7655677655678|495.23809523809524|380.95238095238096|465.9340659340659]
39,2026-02-26 22:18:08,[146.5201465201465|195.6043956043956|6.593406593406593|-154.57875457875457|-71.06227106227107]
40,2026-02-26 22:18:08,[-345.05494505494505|-208.7912087912088|-287.9120879120879|-367.032967032967|-217.58241758241758]
41,2026-02-26 22:18:08,[-416.8498168498169|-249.8168498168498|-299.6336996336996|-369.2307692307692|-191.2087912087912]
42,2026-02-26 22:18:08,[-403.6630036630037|-226.37362637362637|-273.992673992674|-336.2637362637363|-154.57875457875457]
43,2026-02-26 22:18:08,[-361.17216117216117|-205.12820512820514|-248.35164835164835|-312.8205128205128|-144.32234432234432]
44,2026-02-26 22:18:08,[-356.7765567765568|-208.05860805860806|-253.4798534798535|-296.7032967032967|-142.85714285714286]
45,2026-02-26 22:18:08,[-354.57875457875457|-205.86080586080587|-239.56043956043956|-295.23809523809524|-134.06593406593407]
46,2026-02-26 22:18:08,[-345.05494505494505|-183.88278388278388|-226.37362637362637|-271.79487179487177|-101.0989010989011]
47,2026-02-26 22:18:08,[-318.68131868131866|-161.17216117216117|-202.93040293040292|-265.9340659340659|-66.66666666666667]
48,2026-02-26 22:18:09,[-301.0989010989011|-153.1135531135531|-188.2783882783883|-246.8864468864469|-64.46886446886447]
49,2026-02-26 22:18:09,[-285.7142857142857|-115.01831501831502|-150.91575091575092|-205.86080586080587|-5.86080586080586]
50,2026-02-26 22:18:09,[-195.6043956043956|-38.827838827838825|-103.2967032967033|-180.95238095238096|-54.21245421245421]
51,2026-02-26 22:18:09,[-290.84249084249086|-120.87912087912088|-158.97435897435898|-224.9084249084249|-52.747252747252745]
52,2026-02-26 22:18:09,[-274.72527472527474|-98.9010989010989|78.3882783882784|711.3553113553113|1499.6336996336997]
53,2026-02-26 22:18:09,[1479.1208791208792|-21.978021978021978|-811.7216117216117|-630.0366300366301|-147.25274725274724]
54,2026-02-26 22:18:09,[-243.2234432234432|-94.50549450549451|-119.41391941391942|-181.6849816849817|13.91941391941392]
55,2026-02-26 22:18:09,[-179.48717948717947|-24.175824175824175|-39.56043956043956|-98.9010989010989|88.64468864468864]
56,2026-02-26 22:18:09,[-109.15750915750915|54.94505494505494|40.29304029304029|-9.523809523809524|215.3846153846154]
57,2026-02-26 22:18:09,[8.791208791208792|185.34798534798534|202.1978021978022|172.8937728937729|413.1868131868132]
58,2026-02-26 22:18:09,[245.42124542124543|456.4102564102564|488.64468864468864|427.1062271062271|635.8974358974359]
59,2026-02-26 22:18:09,[409.5238095238095|534.065934065934|463.7362637362637|295.23809523809524|345.05494505494505]
60,2026-02-26 22:18:09,[-13.186813186813186|14.652014652014651|-113.55311355311355|-267.3992673992674|-132.6007326007326]
61,2026-02-26 22:18:09,[-390.4761904761905|-265.9340659340659|-305.4945054945055|-394.13919413919416|-192.67399267399267]
62,2026-02-26 22:18:09,[-427.1062271062271|-284.98168498168496|-296.7032967032967|-365.56776556776555|-169.96336996336996]
63,2026-02-26 22:18:09,[-389.7435897435897|-240.2930402930403|-260.8058608058608|-340.65934065934067|-160.43956043956044]
64,2026-02-26 22:18:09,[-368.4981684981685|-216.84981684981685|-228.57142857142858|-321.61172161172163|-144.32234432234432]
65,2026-02-26 22:18:09,[-356.04395604395603|-220.51282051282053|-236.63003663003664|-328.93772893772893|-134.7985347985348]
66,2026-02-26 22:18:09,[-352.3809523809524|-212.45421245421247|-227.83882783882783|-318.68131868131866|-126.00732600732601]
67,2026-02-26 22:18:09,[-334.7985347985348|-189.74358974358975|-201.46520146520146|-299.6336996336996|-95.97069597069597]
68,2026-02-26 22:18:09,[-317.2161172161172|-180.95238095238096|-180.21978021978023|-276.1904761904762|-62.27106227106227]
69,2026-02-26 22:18:09,[-299.6336996336996|-170.6959706959707|-173.62637362637363|-258.6080586080586|-62.27106227106227]
70,2026-02-26 22:18:09,[-273.992673992674|-114.28571428571429|-94.50549450549451|-176.55677655677655|-8.058608058608058]
71,2026-02-26 22:18:09,[-254.21245421245422|-161.9047619047619|-183.15018315018315|-273.2600732600733|-84.24908424908425]
72,2026-02-26 22:18:09,[-298.9010989010989|-156.04395604395606|-158.97435897435898|-249.8168498168498|88.64468864468864]
73,2026-02-26 22:18:10,[406.5934065934066|1499.6336996336997|1499.6336996336997|205.86080586080587|-700.3663003663004]
74,2026-02-26 22:18:10,[-780.952380952381|-312.8205128205128|-141.3919413919414|-224.17582417582418|-31.501831501831504]
75,2026-02-26 22:18:10,[-228.57142857142858|-79.85347985347985|-65.2014652014652|-146.5201465201465|63.73626373626374]
76,2026-02-26 22:18:10,[-136.996336996337|8.058608058608058|26.373626373626372|-66.66666666666667|148.71794871794873]
77,2026-02-26 22:18:10,[-43.223443223443226|102.56410256410257|134.7985347985348|52.014652014652015|295.23809523809524]
78,2026-02-26 22:18:10,[116.48351648351648|295.23809523809524|359.7069597069597|295.23809523809524|548.7179487179487]
79,2026-02-26 22:18:10,[360.43956043956047|503.2967032967033|520.8791208791209|391.94139194139194|550.1831501831501]
80,2026-02-26 22:18:10,[245.42124542124543|243.2234432234432|122.34432234432235|-109.89010989010988|-27.106227106227106]
81,2026-02-26 22:18:10,[-321.61172161172163|-238.82783882783883|-255.67765567765568|-390.4761904761905|-204.3956043956044]
82,2026-02-26 22:18:10,[-406.5934065934066|-287.9120879120879|-274.72527472527474|-383.1501831501831|-172.8937728937729]
83,2026-02-26 22:18:10,[-380.95238095238096|-254.21245421245422|-243.95604395604394|-354.57875457875457|-132.6007326007326]
84,2026-02-26 22:18:10,[-345.05494505494505|-226.37362637362637|-212.45421245421247|-334.0659340659341|-117.94871794871794]
85,2026-02-26 22:18:10,[-318.68131868131866|-214.65201465201466|-204.3956043956044|-331.13553113553115|-110.62271062271063]
86,2026-02-26 22:18:10,[-321.61172161172163|-211.7216117216117|-197.06959706959708|-307.6923076923077|-94.50549450549451]
87,2026-02-26 22:18:10,[-311.35531135531136|-201.46520146520146|-183.15018315018315|-299.6336996336996|-94.50549450549451]
88,2026-02-26 22:18:10,[-302.56410256410254|-194.13919413919413|-173.62637362637363|-289.3772893772894|-83.51648351648352]
89,2026-02-26 22:18:10,[-285.7142857142857|-167.76556776556777|-154.57875457875457|-254.21245421245422|-15.384615384615385]
90,2026-02-26 22:18:10,[-201.46520146520146|-99.63369963369964|-103.2967032967033|-268.13186813186815|-84.24908424908425]
91,2026-02-26 22:18:10,[-293.7728937728938|-182.41758241758242|-145.78754578754578|-263.7362637362637|-53.47985347985348]
92,2026-02-26 22:18:10,[-267.3992673992674|-90.10989010989012|218.3150183150183|849.0842490842491|1499.6336996336997]
93,2026-02-26 22:18:10,[1005.8608058608058|-314.2857142857143|-810.2564102564103|-722.3443223443223|-216.84981684981685]
94,2026-02-26 22:18:10,[-246.8864468864469|-115.01831501831502|-73.99267399267399|-191.2087912087912|38.095238095238095]
95,2026-02-26 22:18:10,[-147.25274725274724|-32.967032967032964|18.315018315018314|-106.95970695970696|113.55311355311355]
96,2026-02-26 22:18:10,[-76.92307692307692|38.827838827838825|91.57509157509158|-21.245421245421245|219.04761904761904]
97,2026-02-26 22:18:10,[32.967032967032964|159.7069597069597|239.56043956043956|146.5201465201465|404.3956043956044]
98,2026-02-26 22:18:11,[255.67765567765568|403.6630036630037|474.72527472527474|345.7875457875458|579.4871794871794]
99,2026-02-26 22:18:11,[358.24175824175825|428.57142857142856|405.12820512820514|159.7069597069597|249.8168498168498]
100,2026-02-26 22:18:11,[-73.26007326007326|-86.44688644688645|-123.80952380952381|-329.6703296703297|-153.1135531135531]
101,2026-02-26 22:18:11,[-368.4981684981685|-302.56410256410254|-276.1904761904762|-413.9194139194139|-189.74358974358975]
102,2026-02-26 22:18:11,[-383.1501831501831|-286.4468864468864|-229.3040293040293|-367.032967032967|-147.25274725274724]
103,2026-02-26 22:18:11,[-342.12454212454213|-260.0732600732601|-208.7912087912088|-345.05494505494505|-132.6007326007326]
104,2026-02-26 22:18:11,[-329.6703296703297|-242.49084249084248|-202.1978021978022|-355.3113553113553|-123.80952380952381]
105,2026-02-26 22:18:11,[-320.8791208791209|-243.95604395604394|-205.12820512820514|-359.7069597069597|-129.67032967032966]
106,2026-02-26 22:18:11,[-331.86813186813185|-251.28205128205127|-202.93040293040292|-342.85714285714283|-125.27472527472527]
107,2026-02-26 22:18:11,[-317.94871794871796|-236.63003663003664|-182.41758241758242|-340.65934065934067|-113.55311355311355]
108,2026-02-26 22:18:11,[-307.6923076923077|-221.97802197802199|-169.96336996336996|-309.15750915750914|-82.78388278388279]
109,2026-02-26 22:18:11,[-274.72527472527474|-207.32600732600733|-120.87912087912088|-224.9084249084249|-4.395604395604396]
110,2026-02-26 22:18:11,[-220.51282051282053|-176.55677655677655|-158.97435897435898|-328.93772893772893|-95.97069597069597]
111,2026-02-26 22:18:11,[-274.72527472527474|-202.1978021978022|-132.6007326007326|-296.7032967032967|-65.2014652014652]
112,2026-02-26 22:18:11,[-97.43589743589743|506.2271062271062|1499.6336996336997|1499.6336996336997|347.98534798534797]
113,2026-02-26 22:18:11,[-873.992673992674|-689.3772893772893|-277.65567765567766|-265.2014652014652|-8.791208791208792]
114,2026-02-26 22:18:11,[-197.06959706959708|-123.80952380952381|-41.75824175824176|-188.2783882783883|46.15384615384615]
115,2026-02-26 22:18:11,[-131.86813186813185|-59.34065934065934|15.384615384615385|-131.13553113553112|104.02930402930403]
116,2026-02-26 22:18:11,[-62.27106227106227|16.84981684981685|107.6923076923077|-38.827838827838825|221.24542124542126]
117,2026-02-26 22:18:11,[81.31868131868131|178.75457875457874|301.0989010989011|183.15018315018315|476.9230769230769]
118,2026-02-26 22:18:11,[336.996336996337|428.57142857142856|529.6703296703297|345.05494505494505|557.5091575091575]
119,2026-02-26 22:18:11,[315.75091575091574|276.1904761904762|238.0952380952381|-61.53846153846154|57.142857142857146]
120,2026-02-26 22:18:11,[-216.11721611721612|-221.24542124542126|-200.0|-411.72161172161174|-192.67399267399267]
121,2026-02-26 22:18:11,[-381.68498168498166|-331.86813186813185|-254.94505494505495|-428.57142857142856|-192.67399267399267]
122,2026-02-26 22:18:11,[-362.6373626373626|-308.42490842490844|-221.97802197802199|-394.87179487179486|-154.57875457875457]
123,2026-02-26 22:18:11,[-334.0659340659341|-284.24908424908426|-200.0|-364.1025641025641|-120.87912087912088]
124,2026-02-26 22:18:12,[-301.83150183150184|-262.27106227106225|-179.48717948717947|-356.7765567765568|-131.13553113553112]
125,2026-02-26 22:18:12,[-309.8901098901099|-267.3992673992674|-183.88278388278388|-365.56776556776555|-143.5897435897436]
126,2026-02-26 22:18:12,[-318.68131868131866|-271.79487179487177|-178.02197802197801|-353.84615384615387|-117.94871794871794]
127,2026-02-26 22:18:12,[-290.1098901098901|-258.6080586080586|-160.43956043956044|-340.65934065934067|-112.08791208791209]
128,2026-02-26 22:18:12,[-276.1904761904762|-241.75824175824175|-148.71794871794873|-323.0769230769231|-90.10989010989012]
129,2026-02-26 22:18:12,[-243.2234432234432|-188.2783882783883|-105.49450549450549|-261.53846153846155|16.117216117216117]
130,2026-02-26 22:18:12,[-153.1135531135531|-132.6007326007326|-73.26007326007326|-298.16849816849816|-85.71428571428571]
131,2026-02-26 22:18:12,[-239.56043956043956|-200.0|-107.6923076923077|-287.9120879120879|-71.06227106227107]
132,2026-02-26 22:18:12,[-236.63003663003664|-38.827838827838825|648.3516483516484|1499.6336996336997|1499.6336996336997]
133,2026-02-26 22:18:12,[214.65201465201466|-810.2564102564103|-575.0915750915751|-427.1062271062271|-24.175824175824175]
134,2026-02-26 22:18:12,[-170.6959706959707|-145.05494505494505|-36.63003663003663|-213.91941391941393|27.106227106227106]
135,2026-02-26 22:18:12,[-114.28571428571429|-80.58608058608058|26.373626373626372|-150.1831501831502|87.17948717948718]
136,2026-02-26 22:18:12,[-53.47985347985348|-8.791208791208792|123.80952380952381|-47.61904761904762|193.4065934065934]
137,2026-02-26 22:18:12,[68.13186813186813|131.86813186813185|289.3772893772894|136.996336996337|417.5824175824176]
138,2026-02-26 22:18:12,[320.8791208791209|390.4761904761905|545.7875457875458|360.43956043956047|615.3846153846154]
139,2026-02-26 22:18:12,[442.4908424908425|406.5934065934066|428.57142857142856|85.71428571428571|194.13919413919413]
140,2026-02-26 22:18:12,[-72.52747252747253|-149.45054945054946|-107.6923076923077|-356.7765567765568|-150.1831501831502]
141,2026-02-26 22:18:12,[-323.0769230769231|-320.8791208791209|-205.86080586080587|-418.31501831501834|-188.2783882783883]
142,2026-02-26 22:18:12,[-334.7985347985348|-306.959706959707|-188.2783882783883|-390.4761904761905|-153.1135531135531]
143,2026-02-26 22:18:12,[-289.3772893772894|-277.65567765567766|-157.50915750915752|-355.3113553113553|-118.68131868131869]
144,2026-02-26 22:18:12,[-264.46886446886447|-265.9340659340659|-153.1135531135531|-358.24175824175825|-142.85714285714286]
145,2026-02-26 22:18:12,[-287.1794871794872|-272.5274725274725|-154.57875457875457|-352.3809523809524|-132.6007326007326]
146,2026-02-26 22:18:12,[-276.9230769230769|-274.72527472527474|-144.32234432234432|-346.5201465201465|-120.14652014652015]
147,2026-02-26 22:18:12,[-258.6080586080586|-252.01465201465203|-120.87912087912088|-331.86813186813185|-103.2967032967033]
148,2026-02-26 22:18:12,[-242.49084249084248|-237.36263736263737|-100.36630036630036|-306.2271062271062|-84.98168498168498]
149,2026-02-26 22:18:13,[-205.86080586080587|-197.06959706959708|-71.06227106227107|-249.8168498168498|10.989010989010989]
150,2026-02-26 22:18:13,[-116.48351648351648|-134.06593406593407|-32.967032967032964|-283.5164835164835|-72.52747252747253]
151,2026-02-26 22:18:13,[-200.0|-197.06959706959708|-60.8058608058608|-273.992673992674|-41.02564102564103]
152,2026-02-26 22:18:13,[-167.76556776556777|-27.106227106227106|550.9157509157509|1377.2893772893774|1499.6336996336997]
153,2026-02-26 22:18:13,[311.35531135531136|-765.5677655677656|-686.4468864468864|-598.5347985347985|-132.6007326007326]
154,2026-02-26 22:18:13,[-170.6959706959707|-164.83516483516485|-16.84981684981685|-217.58241758241758|16.84981684981685]
155,2026-02-26 22:18:13,[-98.9010989010989|-101.0989010989011|60.8058608058608|-146.5201465201465|84.98168498168498]
156,2026-02-26 22:18:13,[-13.186813186813186|-5.128205128205129|153.84615384615384|-40.29304029304029|204.3956043956044]
157,2026-02-26 22:18:13,[110.62271062271063|128.2051282051282|313.5531135531136|136.26373626373626|412.45421245421244]
158,2026-02-26 22:18:13,[345.7875457875458|368.4981684981685|550.1831501831501|338.46153846153845|572.1611721611722]
159,2026-02-26 22:18:13,[427.1062271062271|345.05494505494505|409.5238095238095|65.2014652014652|167.76556776556777]
160,2026-02-26 22:18:13,[-52.747252747252745|-161.17216117216117|-76.92307692307692|-358.24175824175825|-180.95238095238096]
161,2026-02-26 22:18:13,[-301.83150183150184|-343.5897435897436|-196.33699633699635|-429.3040293040293|-205.86080586080587]
162,2026-02-26 22:18:13,[-310.6227106227106|-329.6703296703297|-173.62637362637363|-396.3369963369963|-176.55677655677655]
163,2026-02-26 22:18:13,[-287.1794871794872|-310.6227106227106|-153.1135531135531|-381.68498168498166|-172.16117216117217]
164,2026-02-26 22:18:13,[-276.9230769230769|-301.0989010989011|-158.24175824175825|-393.4065934065934|-176.55677655677655]
165,2026-02-26 22:18:13,[-283.5164835164835|-318.68131868131866|-167.76556776556777|-404.3956043956044|-181.6849816849817]
166,2026-02-26 22:18:13,[-284.98168498168496|-312.8205128205128|-153.1135531135531|-384.61538461538464|-176.55677655677655]
167,2026-02-26 22:18:13,[-268.86446886446885|-306.959706959707|-131.13553113553112|-361.17216117216117|-149.45054945054946]
168,2026-02-26 22:18:13,[-241.02564102564102|-276.1904761904762|-112.08791208791209|-342.85714285714283|-119.41391941391942]
169,2026-02-26 22:18:13,[-217.58241758241758|-254.21245421245422|-87.17948717948718|-317.94871794871796|-98.16849816849818]
170,2026-02-26 22:18:13,[-191.2087912087912|-217.58241758241758|-16.117216117216117|-227.83882783882783|-41.02564102564103]
171,2026-02-26 22:18:13,[-154.57875457875457|-224.9084249084249|-85.71428571428571|-323.0769230769231|-114.28571428571429]
172,2026-02-26 22:18:13,[-189.74358974358975|-227.83882783882783|-63.00366300366301|-315.75091575091574|-62.27106227106227]
173,2026-02-26 22:18:14,[128.93772893772893|951.6483516483516|1499.6336996336997|1004.3956043956044|-303.2967032967033]
174,2026-02-26 22:18:14,[-827.1062271062272|-544.3223443223443|-101.0989010989011|-272.5274725274725|-79.85347985347985]
175,2026-02-26 22:18:14,[-154.57875457875457|-181.6849816849817|7.326007326007326|-208.7912087912088|-6.593406593406593]
176,2026-02-26 22:18:14,[-73.99267399267399|-108.42490842490842|79.12087912087912|-136.26373626373626|74.72527472527473]
177,2026-02-26 22:18:14,[30.036630036630036|-3.663003663003663|195.6043956043956|-13.91941391941392|224.9084249084249]
178,2026-02-26 22:18:14,[191.2087912087912|192.67399267399267|418.31501831501834|229.3040293040293|484.24908424908426]
179,2026-02-26 22:18:14,[450.54945054945057|428.57142857142856|621.978021978022|362.6373626373626|515.018315018315]
180,2026-02-26 22:18:14,[383.1501831501831|208.05860805860806|249.8168498168498|-114.28571428571429|-29.304029304029303]
181,2026-02-26 22:18:14,[-177.28937728937728|-298.9010989010989|-164.83516483516485|-429.3040293040293|-258.6080586080586]
182,2026-02-26 22:18:14,[-329.6703296703297|-397.0695970695971|-225.64102564102564|-447.6190476190476|-254.21245421245422]
183,2026-02-26 22:18:14,[-320.1465201465202|-375.8241758241758|-191.2087912087912|-424.1758241758242|-218.3150183150183]
184,2026-02-26 22:18:14,[-271.79487179487177|-331.86813186813185|-153.1135531135531|-371.42857142857144|-193.4065934065934]
185,2026-02-26 22:18:14,[-242.49084249084248|-310.6227106227106|-123.07692307692308|-352.3809523809524|-183.88278388278388]
186,2026-02-26 22:18:14,[-249.08424908424908|-312.0879120879121|-134.06593406593407|-359.7069597069597|-174.35897435897436]
187,2026-02-26 22:18:14,[-235.16483516483515|-300.3663003663004|-120.87912087912088|-345.05494505494505|-167.76556776556777]
188,2026-02-26 22:18:14,[-223.44322344322345|-290.84249084249086|-103.2967032967033|-334.0659340659341|-164.83516483516485]
189,2026-02-26 22:18:14,[-208.7912087912088|-273.2600732600733|-90.10989010989012|-325.27472527472526|-156.04395604395606]
190,2026-02-26 22:18:14,[-200.0|-261.53846153846155|-76.19047619047619|-308.42490842490844|-142.12454212454213]
191,2026-02-26 22:18:14,[-173.62637362637363|-249.8168498168498|-63.00366300366301|-287.9120879120879|-120.14652014652015]
192,2026-02-26 22:18:14,[-153.1135531135531|-208.7912087912088|-16.84981684981685|-252.74725274725276|-51.282051282051285]
193,2026-02-26 22:18:14,[-60.8058608058608|-126.73992673992674|32.967032967032964|-218.3150183150183|-73.99267399267399]
194,2026-02-26 22:18:14,[-126.73992673992674|-204.3956043956044|-15.384615384615385|-246.8864468864469|-71.06227106227107]
195,2026-02-26 22:18:14,[-103.2967032967033|-202.93040293040292|85.71428571428571|230.76923076923077|1499.6336996336997]
196,2026-02-26 22:18:14,[1499.6336996336997|664.4688644688645|-477.65567765567766|-865.2014652014652|-369.96336996337]
197,2026-02-26 22:18:14,[-155.3113553113553|-166.3003663003663|33.6996336996337|-189.74358974358975|-5.128205128205129]
198,2026-02-26 22:18:14,[-16.84981684981685|-83.51648351648352|120.14652014652015|-112.08791208791209|59.34065934065934]
199,2026-02-26 22:18:15,[52.014652014652015|-24.175824175824175|192.67399267399267|-32.967032967032964|146.5201465201465]
200,2026-02-26 22:18:15,[148.71794871794873|86.44688644688645|321.61172161172163|120.14652014652015|324.54212454212455]
201,2026-02-26 22:18:15,[360.43956043956047|314.2857142857143|592.6739926739926|386.0805860805861|567.7655677655678]
202,2026-02-26 22:18:15,[544.3223443223443|427.1062271062271|628.5714285714286|298.16849816849816|334.7985347985348]
203,2026-02-26 22:18:15,[186.8131868131868|-33.6996336996337|75.45787545787546|-252.01465201465203|-164.83516483516485]
204,2026-02-26 22:18:15,[-224.17582417582418|-353.84615384615387|-158.24175824175825|-399.26739926739924|-252.74725274725276]
205,2026-02-26 22:18:15,[-253.4798534798535|-345.05494505494505|-135.53113553113553|-369.96336996337|-208.7912087912088]
206,2026-02-26 22:18:15,[-216.11721611721612|-313.5531135531136|-105.49450549450549|-343.5897435897436|-182.41758241758242]
207,2026-02-26 22:18:15,[-192.67399267399267|-305.4945054945055|-89.37728937728937|-345.05494505494505|-200.0]
208,2026-02-26 22:18:15,[-212.45421245421247|-324.54212454212455|-120.87912087912088|-369.2307692307692|-226.37362637362637]
209,2026-02-26 22:18:15,[-227.1062271062271|-342.12454212454213|-123.80952380952381|-361.9047619047619|-217.58241758241758]
210,2026-02-26 22:18:15,[-217.58241758241758|-337.72893772893775|-120.14652014652015|-343.5897435897436|-195.6043956043956]
211,2026-02-26 22:18:15,[-205.86080586080587|-321.61172161172163|-101.0989010989011|-331.13553113553115|-189.74358974358975]
212,2026-02-26 22:18:15,[-180.95238095238096|-298.16849816849816|-77.65567765567765|-306.959706959707|-164.83516483516485]
213,2026-02-26 22:18:15,[-158.24175824175825|-274.72527472527474|-53.47985347985348|-287.1794871794872|-145.78754578754578]
214,2026-02-26 22:18:15,[-128.2051282051282|-241.02564102564102|-24.90842490842491|-235.16483516483515|-60.07326007326007]
215,2026-02-26 22:18:15,[-49.08424908424909|-192.67399267399267|5.86080586080586|-270.3296703296703|-148.71794871794873]
216,2026-02-26 22:18:15,[-133.33333333333334|-261.53846153846155|-37.362637362637365|-271.06227106227107|-141.3919413919414]
217,2026-02-26 22:18:15,[-135.53113553113553|-160.43956043956044|405.12820512820514|1075.4578754578754|1499.6336996336997]
218,2026-02-26 22:18:15,[782.4175824175824|-638.0952380952381|-687.1794871794872|-603.6630036630037|-236.63003663003664]
219,2026-02-26 22:18:15,[-120.87912087912088|-229.3040293040293|22.71062271062271|-200.0|-64.46886446886447]
220,2026-02-26 22:18:15,[-38.827838827838825|-157.50915750915752|78.3882783882784|-150.91575091575092|-19.78021978021978]
221,2026-02-26 22:18:15,[34.43223443223443|-67.3992673992674|168.4981684981685|-41.02564102564103|111.35531135531136]
222,2026-02-26 22:18:15,[160.43956043956044|50.54945054945055|309.8901098901099|115.01831501831502|295.23809523809524]
223,2026-02-26 22:18:16,[389.010989010989|296.7032967032967|592.6739926739926|368.4981684981685|491.57509157509156]
224,2026-02-26 22:18:16,[534.065934065934|354.57875457875457|529.6703296703297|184.6153846153846|179.48717948717947]
225,2026-02-26 22:18:16,[87.17948717948718|-157.50915750915752|-16.117216117216117|-312.8205128205128|-274.72527472527474]
226,2026-02-26 22:18:16,[-299.6336996336996|-519.4139194139194|-328.93772893772893|-586.8131868131868|-495.97069597069594]
227,2026-02-26 22:18:16,[-434.43223443223445|-575.0915750915751|-321.61172161172163|-535.5311355311355|-422.7106227106227]
228,2026-02-26 22:18:16,[-369.96336996337|-489.3772893772894|-236.63003663003664|-448.35164835164835|-333.3333333333333]
229,2026-02-26 22:18:16,[-287.9120879120879|-427.1062271062271|-189.74358974358975|-414.65201465201466|-306.2271062271062]
230,2026-02-26 22:18:16,[-263.003663003663|-416.8498168498169|-164.83516483516485|-387.54578754578756|-277.65567765567766]
231,2026-02-26 22:18:16,[-235.16483516483515|-384.61538461538464|-142.12454212454213|-361.17216117216117|-257.87545787545787]
232,2026-02-26 22:18:16,[-205.86080586080587|-357.5091575091575|-122.34432234432235|-332.6007326007326|-223.44322344322345]
233,2026-02-26 22:18:16,[-172.8937728937729|-334.7985347985348|-98.16849816849818|-311.35531135531136|-202.93040293040292]
234,2026-02-26 22:18:16,[-150.1831501831502|-310.6227106227106|-60.8058608058608|-274.72527472527474|-169.96336996336996]
235,2026-02-26 22:18:16,[-119.41391941391942|-284.98168498168496|-41.02564102564103|-249.8168498168498|-153.1135531135531]
236,2026-02-26 22:18:16,[-95.97069597069597|-247.61904761904762|30.036630036630036|-171.42857142857142|-97.43589743589743]
237,2026-02-26 22:18:16,[-62.27106227106227|-261.53846153846155|-52.747252747252745|-283.5164835164835|-188.2783882783883]
238,2026-02-26 22:18:16,[-123.80952380952381|-277.65567765567766|-40.29304029304029|-263.003663003663|-130.4029304029304]
239,2026-02-26 22:18:16,[159.7069597069597|661.5384615384615|1499.6336996336997|1076.1904761904761|-204.3956043956044]
240,2026-02-26 22:18:16,[-783.8827838827839|-695.2380952380952|-143.5897435897436|-223.44322344322345|-119.41391941391942]
241,2026-02-26 22:18:16,[-48.35164835164835|-192.67399267399267|61.53846153846154|-132.6007326007326|-41.75824175824176]
242,2026-02-26 22:18:16,[34.43223443223443|-123.80952380952381|136.996336996337|-61.53846153846154|32.967032967032964]
243,2026-02-26 22:18:16,[127.47252747252747|-25.641025641025642|249.8168498168498|65.2014652014652|172.8937728937729]
244,2026-02-26 22:18:16,[287.1794871794872|148.71794871794873|447.6190476190476|289.3772893772894|418.31501831501834]
245,2026-02-26 22:18:16,[542.8571428571429|383.8827838827839|649.8168498168499|424.1758241758242|466.6666666666667]
246,2026-02-26 22:18:16,[489.3772893772894|191.2087912087912|304.02930402930406|-25.641025641025642|-73.26007326007326]
247,2026-02-26 22:18:16,[-83.51648351648352|-343.5897435897436|-132.6007326007326|-353.84615384615387|-312.8205128205128]
248,2026-02-26 22:18:17,[-242.49084249084248|-430.03663003663|-176.55677655677655|-380.2197802197802|-306.959706959707]
249,2026-02-26 22:18:17,[-214.65201465201466|-387.54578754578756|-134.7985347985348|-329.6703296703297|-263.003663003663]
250,2026-02-26 22:18:17,[-172.16117216117217|-349.45054945054943|-106.22710622710623|-298.16849816849816|-241.02564102564102]
251,2026-02-26 22:18:17,[-153.1135531135531|-343.5897435897436|-98.16849816849818|-295.23809523809524|-241.02564102564102]
252,2026-02-26 22:18:17,[-156.04395604395606|-336.2637362637363|-94.50549450549451|-295.97069597069594|-238.0952380952381]
253,2026-02-26 22:18:17,[-136.996336996337|-324.54212454212455|-84.24908424908425|-272.5274725274725|-224.17582417582418]
254,2026-02-26 22:18:17,[-126.73992673992674|-314.2857142857143|-73.99267399267399|-265.9340659340659|-214.65201465201466]
255,2026-02-26 22:18:17,[-120.87912087912088|-319.4139194139194|-62.27106227106227|-239.56043956043956|-200.0]
256,2026-02-26 22:18:17,[-101.83150183150182|-299.6336996336996|-54.94505494505494|-229.3040293040293|-179.48717948717947]
257,2026-02-26 22:18:17,[-67.3992673992674|-263.7362637362637|-16.84981684981685|-161.9047619047619|-87.17948717948718]
258,2026-02-26 22:18:17,[5.128205128205129|-224.9084249084249|-19.78021978021978|-229.3040293040293|-197.06959706959708]
259,2026-02-26 22:18:17,[-78.3882783882784|-274.72527472527474|-27.106227106227106|-200.0|-169.96336996336996]
260,2026-02-26 22:18:17,[-27.83882783882784|-6.593406593406593|1039.5604395604396|1499.6336996336997|1178.021978021978]
261,2026-02-26 22:18:17,[-180.95238095238096|-943.5897435897435|-347.98534798534797|-238.0952380952381|-126.73992673992674]
262,2026-02-26 22:18:17,[-13.91941391941392|-211.7216117216117|53.47985347985348|-109.89010989010988|-70.32967032967034]
263,2026-02-26 22:18:17,[56.41025641025641|-150.1831501831502|99.63369963369964|-52.014652014652015|-8.058608058608058]
264,2026-02-26 22:18:17,[127.47252747252747|-71.06227106227107|186.8131868131868|38.827838827838825|102.56410256410257]
265,2026-02-26 22:18:17,[254.21245421245422|77.65567765567765|371.42857142857144|249.8168498168498|320.1465201465202]
266,2026-02-26 22:18:17,[498.9010989010989|323.0769230769231|604.3956043956044|435.8974358974359|462.27106227106225]
267,2026-02-26 22:18:17,[576.5567765567765|290.1098901098901|428.57142857142856|120.14652014652015|14.652014652014651]
268,2026-02-26 22:18:17,[28.571428571428573|-284.98168498168496|-112.82051282051282|-315.75091575091574|-334.7985347985348]
269,2026-02-26 22:18:17,[-226.37362637362637|-459.34065934065933|-208.7912087912088|-367.032967032967|-356.7765567765568]
270,2026-02-26 22:18:17,[-221.97802197802199|-437.3626373626374|-183.88278388278388|-340.65934065934067|-321.61172161172163]
271,2026-02-26 22:18:17,[-189.01098901098902|-413.9194139194139|-168.4981684981685|-317.2161172161172|-308.42490842490844]
272,2026-02-26 22:18:17,[-172.8937728937729|-391.94139194139194|-144.32234432234432|-302.56410256410254|-296.7032967032967]
273,2026-02-26 22:18:18,[-161.17216117216117|-384.61538461538464|-145.78754578754578|-299.6336996336996|-296.7032967032967]
274,2026-02-26 22:18:18,[-161.17216117216117|-389.010989010989|-144.32234432234432|-284.98168498168496|-282.05128205128204]
275,2026-02-26 22:18:18,[-142.12454212454213|-361.17216117216117|-124.54212454212454|-263.003663003663|-258.6080586080586]
276,2026-02-26 22:18:18,[-119.41391941391942|-344.32234432234435|-100.36630036630036|-238.0952380952381|-241.02564102564102]
277,2026-02-26 22:18:18,[-98.9010989010989|-321.61172161172163|-89.37728937728937|-228.57142857142858|-218.3150183150183]
278,2026-02-26 22:18:18,[-63.73626373626374|-299.6336996336996|-25.641025641025642|-117.94871794871794|-110.62271062271063]
279,2026-02-26 22:18:18,[15.384615384615385|-252.74725274725276|-54.94505494505494|-213.91941391941393|-219.04761904761904]
280,2026-02-26 22:18:18,[-65.2014652014652|-293.7728937728938|-49.81684981684982|-183.88278388278388|-200.0]
281,2026-02-26 22:18:18,[75.45787545787546|230.76923076923077|1499.6336996336997|1499.6336996336997|485.7142857142857]
282,2026-02-26 22:18:18,[-623.4432234432235|-894.5054945054945|-287.1794871794872|-189.74358974358975|-158.97435897435898]
283,2026-02-26 22:18:18,[-13.186813186813186|-235.89743589743588|13.91941391941392|-100.36630036630036|-106.22710622710623]
284,2026-02-26 22:18:18,[65.93406593406593|-158.97435897435898|76.92307692307692|-16.84981684981685|-19.78021978021978]
285,2026-02-26 22:18:18,[154.57875457875457|-67.3992673992674|173.62637362637363|80.58608058608058|93.04029304029304]
286,2026-02-26 22:18:18,[280.5860805860806|98.9010989010989|369.2307692307692|307.6923076923077|326.007326007326]
287,2026-02-26 22:18:18,[555.3113553113553|347.98534798534797|602.9304029304029|501.0989010989011|462.27106227106225]
288,2026-02-26 22:18:18,[583.8827838827839|249.8168498168498|358.24175824175825|104.76190476190476|-33.6996336996337]
289,2026-02-26 22:18:18,[18.315018315018314|-301.0989010989011|-125.27472527472527|-282.05128205128204|-334.7985347985348]
290,2026-02-26 22:18:18,[-178.02197802197801|-427.1062271062271|-197.06959706959708|-314.2857142857143|-344.32234432234435]
291,2026-02-26 22:18:18,[-171.42857142857142|-406.5934065934066|-180.95238095238096|-293.040293040293|-330.4029304029304]
292,2026-02-26 22:18:18,[-164.83516483516485|-406.5934065934066|-178.02197802197801|-285.7142857142857|-322.34432234432234]
293,2026-02-26 22:18:18,[-153.1135531135531|-402.1978021978022|-188.2783882783883|-295.23809523809524|-340.65934065934067]
294,2026-02-26 22:18:18,[-167.76556776556777|-407.3260073260073|-182.41758241758242|-285.7142857142857|-324.54212454212455]
295,2026-02-26 22:18:18,[-146.5201465201465|-390.4761904761905|-180.21978021978023|-265.9340659340659|-299.6336996336996]
296,2026-02-26 22:18:18,[-120.87912087912088|-367.032967032967|-147.25274725274724|-241.02564102564102|-273.2600732600733]
297,2026-02-26 22:18:18,[-95.97069597069597|-343.5897435897436|-125.27472527472527|-214.65201465201466|-255.67765567765568]
298,2026-02-26 22:18:19,[-65.2014652014652|-310.6227106227106|-106.22710622710623|-193.4065934065934|-235.16483516483515]
299,2026-02-26 22:18:19,[-41.02564102564103|-290.84249084249086|-73.26007326007326|-153.1135531135531|-205.12820512820514]
300,2026-02-26 22:18:19,[-2.197802197802198|-204.3956043956044|18.315018315018314|-97.43589743589743|-166.3003663003663]
301,2026-02-26 22:18:19,[-38.827838827838825|-306.959706959707|-86.44688644688645|-165.56776556776558|-219.78021978021977]
302,2026-02-26 22:18:19,[-38.095238095238095|-282.05128205128204|-75.45787545787546|-50.54945054945055|217.58241758241758]
303,2026-02-26 22:18:19,[1444.6886446886447|1499.6336996336997|679.8534798534798|-603.6630036630037|-893.040293040293]
304,2026-02-26 22:18:19,[-391.94139194139194|-372.16117216117215|-60.8058608058608|-113.55311355311355|-169.96336996336996]
305,2026-02-26 22:18:19,[41.75824175824176|-188.2783882783883|31.501831501831504|-36.63003663003663|-85.71428571428571]
306,2026-02-26 22:18:19,[117.21611721611721|-110.62271062271063|102.56410256410257|53.47985347985348|8.791208791208792]
307,2026-02-26 22:18:19,[219.78021978021977|-3.663003663003663|226.37362637362637|178.02197802197801|136.996336996337]
308,2026-02-26 22:18:19,[384.61538461538464|185.34798534798534|439.56043956043953|427.1062271062271|371.42857142857144]
309,2026-02-26 22:18:19,[605.8608058608058|347.98534798534797|535.5311355311355|434.43223443223445|287.9120879120879]
310,2026-02-26 22:18:19,[389.010989010989|10.989010989010989|84.98168498168498|-71.7948717948718|-241.02564102564102]
311,2026-02-26 22:18:19,[-101.0989010989011|-401.46520146520146|-235.16483516483515|-301.0989010989011|-391.2087912087912]
312,2026-02-26 22:18:19,[-180.95238095238096|-435.16483516483515|-238.0952380952381|-285.7142857142857|-356.7765567765568]
313,2026-02-26 22:18:19,[-150.1831501831502|-400.73260073260076|-203.66300366300365|-246.8864468864469|-328.93772893772893]
314,2026-02-26 22:18:19,[-122.34432234432235|-364.1025641025641|-171.42857142857142|-230.76923076923077|-314.2857142857143]
315,2026-02-26 22:18:19,[-112.82051282051282|-378.75457875457874|-191.94139194139194|-246.8864468864469|-334.7985347985348]
316,2026-02-26 22:18:19,[-126.73992673992674|-381.68498168498166|-180.95238095238096|-224.17582417582418|-318.68131868131866]
317,2026-02-26 22:18:19,[-101.83150183150182|-355.3113553113553|-164.10256410256412|-201.46520146520146|-295.23809523809524]
318,2026-02-26 22:18:19,[-76.92307692307692|-333.3333333333333|-148.71794871794873|-195.6043956043956|-277.65567765567766]
319,2026-02-26 22:18:19,[-72.52747252747253|-317.2161172161172|-101.83150183150182|-108.42490842490842|-213.1868131868132]
320,2026-02-26 22:18:19,[-24.90842490842491|-318.68131868131866|-172.8937728937729|-211.7216117216117|-298.16849816849816]
321,2026-02-26 22:18:19,[-76.92307692307692|-330.4029304029304|-153.1135531135531|-183.88278388278388|-246.8864468864469]
322,2026-02-26 22:18:19,[180.95238095238096|558.974358974359|1499.6336996336997|1367.032967032967|-246.8864468864469]
323,2026-02-26 22:18:20,[-756.7765567765567|-765.5677655677656|-276.1904761904762|-149.45054945054946|-230.76923076923077]
324,2026-02-26 22:18:20,[-5.128205128205129|-237.36263736263737|-53.47985347985348|-63.73626373626374|-147.25274725274724]
325,2026-02-26 22:18:20,[77.65567765567765|-156.7765567765568|22.71062271062271|14.652014652014651|-73.99267399267399]
326,2026-02-26 22:18:20,[169.23076923076923|-54.94505494505494|119.41391941391942|126.00732600732601|52.014652014652015]
327,2026-02-26 22:18:20,[315.75091575091574|104.02930402930403|320.1465201465202|356.7765567765568|295.23809523809524]
328,2026-02-26 22:18:20,[569.2307692307693|326.7399267399267|497.43589743589746|479.8534798534798|326.007326007326]
329,2026-02-26 22:18:20,[490.1098901098901|126.73992673992674|162.63736263736263|22.71062271062271|-194.13919413919413]
330,2026-02-26 22:18:20,[-49.08424908424909|-361.17216117216117|-252.01465201465203|-293.7728937728938|-423.4432234432234]
331,2026-02-26 22:18:20,[-192.67399267399267|-445.42124542124543|-293.7728937728938|-289.3772893772894|-403.6630036630037]
332,2026-02-26 22:18:20,[-159.7069597069597|-406.5934065934066|-246.8864468864469|-246.8864468864469|-360.43956043956047]
333,2026-02-26 22:18:20,[-126.73992673992674|-378.02197802197804|-224.17582417582418|-226.37362637362637|-346.5201465201465]
334,2026-02-26 22:18:20,[-109.15750915750915|-359.7069597069597|-219.78021978021977|-220.51282051282053|-340.65934065934067]
335,2026-02-26 22:18:20,[-109.15750915750915|-365.56776556776555|-219.04761904761904|-215.3846153846154|-340.65934065934067]
336,2026-02-26 22:18:20,[-95.97069597069597|-342.85714285714283|-205.86080586080587|-196.33699633699635|-320.1465201465202]
337,2026-02-26 22:18:20,[-82.78388278388279|-330.4029304029304|-189.01098901098902|-178.02197802197801|-311.35531135531136]
338,2026-02-26 22:18:20,[-66.66666666666667|-299.6336996336996|-169.23076923076923|-142.12454212454213|-266.6666666666667]
339,2026-02-26 22:18:20,[-40.29304029304029|-250.54945054945054|-77.65567765567765|-68.13186813186813|-220.51282051282053]
340,2026-02-26 22:18:20,[-13.91941391941392|-293.7728937728938|-166.3003663003663|-156.04395604395606|-286.4468864468864]
341,2026-02-26 22:18:20,[-43.223443223443226|-295.23809523809524|-156.7765567765568|-125.27472527472527|-110.62271062271063]
342,2026-02-26 22:18:20,[665.934065934066|1499.6336996336997|1499.6336996336997|157.50915750915752|-934.065934065934]
343,2026-02-26 22:18:20,[-557.5091575091575|-442.4908424908425|-134.06593406593407|-85.71428571428571|-224.17582417582418]
344,2026-02-26 22:18:20,[42.49084249084249|-192.67399267399267|-60.8058608058608|-16.84981684981685|-157.50915750915752]
345,2026-02-26 22:18:20,[101.83150183150182|-123.07692307692308|8.058608058608058|53.47985347985348|-75.45787545787546]
346,2026-02-26 22:18:20,[186.08058608058607|-32.234432234432234|107.6923076923077|179.48717948717947|53.47985347985348]
347,2026-02-26 22:18:20,[339.1941391941392|148.71794871794873|315.75091575091574|403.6630036630037|296.7032967032967]
348,2026-02-26 22:18:20,[585.3479853479854|349.45054945054943|456.4102564102564|472.5274725274725|268.13186813186815]
349,2026-02-26 22:18:21,[432.967032967033|73.99267399267399|57.875457875457876|-20.512820512820515|-262.27106227106225]
350,2026-02-26 22:18:21,[-73.99267399267399|-358.24175824175825|-277.65567765567766|-258.6080586080586|-430.03663003663]
351,2026-02-26 22:18:21,[-169.23076923076923|-408.05860805860806|-298.9010989010989|-249.8168498168498|-408.05860805860806]
352,2026-02-26 22:18:21,[-144.32234432234432|-380.2197802197802|-267.3992673992674|-217.58241758241758|-383.1501831501831]
353,2026-02-26 22:18:21,[-126.73992673992674|-358.97435897435895|-252.74725274725276|-201.46520146520146|-362.6373626373626]
354,2026-02-26 22:18:21,[-119.41391941391942|-355.3113553113553|-262.27106227106225|-212.45421245421247|-381.68498168498166]
355,2026-02-26 22:18:21,[-129.67032967032966|-357.5091575091575|-259.34065934065933|-208.7912087912088|-377.2893772893773]
356,2026-02-26 22:18:21,[-119.41391941391942|-347.98534798534797|-252.74725274725276|-195.6043956043956|-370.6959706959707]
357,2026-02-26 22:18:21,[-107.6923076923077|-318.68131868131866|-229.3040293040293|-172.8937728937729|-337.72893772893775]
358,2026-02-26 22:18:21,[-82.78388278388279|-299.6336996336996|-216.11721611721612|-148.71794871794873|-314.2857142857143]
359,2026-02-26 22:18:21,[-61.53846153846154|-265.2014652014652|-180.21978021978023|-101.83150183150182|-229.3040293040293]
360,2026-02-26 22:18:21,[52.014652014652015|-194.13919413919413|-141.3919413919414|-120.87912087912088|-302.56410256410254]
361,2026-02-26 22:18:21,[-40.29304029304029|-261.53846153846155|-176.55677655677655|-103.2967032967033|-283.5164835164835]
362,2026-02-26 22:18:21,[-30.76923076923077|-130.4029304029304|314.2857142857143|1494.5054945054944|1499.6336996336997]
363,2026-02-26 22:18:21,[620.5128205128206|-733.3333333333334|-797.8021978021978|-393.4065934065934|-320.1465201465202]
364,2026-02-26 22:18:21,[21.978021978021978|-183.88278388278388|-98.9010989010989|-12.454212454212454|-183.88278388278388]
365,2026-02-26 22:18:21,[79.85347985347985|-115.01831501831502|-32.967032967032964|63.73626373626374|-111.35531135531136]
366,2026-02-26 22:18:21,[161.9047619047619|-29.304029304029303|54.94505494505494|150.1831501831502|-13.91941391941392]
367,2026-02-26 22:18:21,[271.79487179487177|93.04029304029304|198.53479853479854|321.61172161172163|169.96336996336996]
368,2026-02-26 22:18:21,[490.84249084249086|322.34432234432234|412.45421245421244|525.2747252747253|327.4725274725275]
369,2026-02-26 22:18:21,[589.010989010989|343.5897435897436|333.3333333333333|312.8205128205128|-12.454212454212454]
370,2026-02-26 22:18:21,[147.25274725274724|-142.85714285714286|-166.3003663003663|-134.06593406593407|-356.04395604395603]
371,2026-02-26 22:18:21,[-120.87912087912088|-342.85714285714283|-289.3772893772894|-195.6043956043956|-394.87179487179486]
372,2026-02-26 22:18:21,[-123.80952380952381|-317.94871794871796|-260.0732600732601|-158.97435897435898|-358.97435897435895]
373,2026-02-26 22:18:21,[-97.43589743589743|-286.4468864468864|-239.56043956043956|-148.71794871794873|-355.3113553113553]
374,2026-02-26 22:18:22,[-98.16849816849818|-299.6336996336996|-258.6080586080586|-169.23076923076923|-380.2197802197802]
375,2026-02-26 22:18:22,[-125.27472527472527|-334.0659340659341|-290.1098901098901|-182.41758241758242|-380.2197802197802]
376,2026-02-26 22:18:22,[-121.6117216117216|-312.8205128205128|-270.3296703296703|-161.9047619047619|-368.4981684981685]
377,2026-02-26 22:18:22,[-106.22710622710623|-293.7728937728938|-252.74725274725276|-134.7985347985348|-334.7985347985348]
378,2026-02-26 22:18:22,[-65.93406593406593|-216.11721611721612|-153.1135531135531|-52.014652014652015|-282.05128205128204]
379,2026-02-26 22:18:22,[-62.27106227106227|-283.5164835164835|-241.02564102564102|-131.13553113553112|-330.4029304029304]
380,2026-02-26 22:18:22,[-68.13186813186813|-252.74725274725276|-215.3846153846154|-53.47985347985348|-59.34065934065934]
381,2026-02-26 22:18:22,[789.7435897435897|1499.6336996336997|1263.7362637362637|-54.94505494505494|-969.9633699633699]
382,2026-02-26 22:18:22,[-588.2783882783883|-455.67765567765565|-223.44322344322345|-62.27106227106227|-267.3992673992674]
383,2026-02-26 22:18:22,[8.058608058608058|-156.04395604395606|-126.00732600732601|10.989010989010989|-190.47619047619048]
384,2026-02-26 22:18:22,[69.59706959706959|-87.91208791208791|-49.08424908424909|81.31868131868131|-122.34432234432235]
385,2026-02-26 22:18:22,[145.78754578754578|5.128205128205129|50.54945054945055|197.06959706959708|10.989010989010989]
386,2026-02-26 22:18:22,[310.6227106227106|194.13919413919413|260.0732600732601|438.0952380952381|250.54945054945054]
387,2026-02-26 22:18:22,[535.5311355311355|370.6959706959707|368.4981684981685|462.27106227106225|160.43956043956044]
388,2026-02-26 22:18:22,[309.8901098901099|35.16483516483517|-72.52747252747253|-41.75824175824176|-344.32234432234435]
389,2026-02-26 22:18:22,[-133.33333333333334|-330.4029304029304|-331.86813186813185|-214.65201465201466|-448.35164835164835]
390,2026-02-26 22:18:22,[-191.2087912087912|-340.65934065934067|-328.93772893772893|-191.2087912087912|-412.45421245421244]
391,2026-02-26 22:18:22,[-153.1135531135531|-296.7032967032967|-293.7728937728938|-164.83516483516485|-394.87179487179486]
392,2026-02-26 22:18:22,[-132.6007326007326|-297.43589743589746|-296.7032967032967|-157.50915750915752|-395.6043956043956]
393,2026-02-26 22:18:22,[-144.32234432234432|-298.9010989010989|-302.56410256410254|-169.23076923076923|-402.1978021978022]
394,2026-02-26 22:18:22,[-147.25274725274724|-287.9120879120879|-284.98168498168496|-141.3919413919414|-378.75457875457874]
395,2026-02-26 22:18:22,[-122.34432234432235|-268.86446886446885|-271.06227106227107|-123.80952380952381|-353.84615384615387]
396,2026-02-26 22:18:22,[-107.6923076923077|-228.57142857142858|-239.56043956043956|-101.0989010989011|-331.13553113553115]
397,2026-02-26 22:18:22,[-89.37728937728937|-217.58241758241758|-211.7216117216117|-78.3882783882784|-293.040293040293]
398,2026-02-26 22:18:23,[5.86080586080586|-124.54212454212454|-152.38095238095238|-37.362637362637365|-301.83150183150184]
399,2026-02-26 22:18:23,[-76.92307692307692|-207.32600732600733|-207.32600732600733|-54.94505494505494|-295.23809523809524]
400,2026-02-26 22:18:23,[-43.223443223443226|-197.06959706959708|-120.87912087912088|397.8021978021978|1106.9597069597069]
401,2026-02-26 22:18:23,[1499.6336996336997|662.2710622710623|-681.3186813186813|-682.0512820512821|-569.2307692307693]
402,2026-02-26 22:18:23,[-80.58608058608058|-158.97435897435898|-192.67399267399267|-24.90842490842491|-252.74725274725276]
403,2026-02-26 22:18:23,[12.454212454212454|-100.36630036630036|-112.08791208791209|60.8058608058608|-172.16117216117217]
404,2026-02-26 22:18:23,[80.58608058608058|-28.571428571428573|-31.501831501831504|148.71794871794873|-79.85347985347985]
405,2026-02-26 22:18:23,[181.6849816849817|98.9010989010989|109.15750915750915|309.8901098901099|104.76190476190476]
406,2026-02-26 22:18:23,[400.73260073260076|341.3919413919414|349.45054945054943|548.7179487179487|311.35531135531136]
407,2026-02-26 22:18:23,[561.1721611721612|431.5018315018315|347.98534798534797|448.35164835164835|85.71428571428571]
408,2026-02-26 22:18:23,[196.33699633699635|-21.245421245421245|-154.57875457875457|-60.8058608058608|-365.56776556776555]
409,2026-02-26 22:18:23,[-161.17216117216117|-297.43589743589746|-349.45054945054943|-178.02197802197801|-441.02564102564105]
410,2026-02-26 22:18:23,[-206.5934065934066|-301.0989010989011|-340.65934065934067|-164.83516483516485|-408.05860805860806]
411,2026-02-26 22:18:23,[-173.62637362637363|-271.06227106227107|-313.5531135531136|-147.25274725274724|-393.4065934065934]
412,2026-02-26 22:18:23,[-158.97435897435898|-260.0732600732601|-307.6923076923077|-132.6007326007326|-393.4065934065934]
413,2026-02-26 22:18:23,[-176.55677655677655|-268.13186813186815|-320.1465201465202|-134.06593406593407|-383.1501831501831]
414,2026-02-26 22:18:23,[-158.97435897435898|-254.21245421245422|-309.8901098901099|-129.67032967032966|-378.75457875457874]
415,2026-02-26 22:18:23,[-144.32234432234432|-227.83882783882783|-285.7142857142857|-100.36630036630036|-337.72893772893775]
416,2026-02-26 22:18:23,[-117.94871794871794|-200.0|-252.74725274725276|-71.06227106227107|-324.54212454212455]
417,2026-02-26 22:18:23,[-103.2967032967033|-182.41758241758242|-221.24542124542126|-50.54945054945055|-287.9120879120879]
418,2026-02-26 22:18:23,[-27.106227106227106|-84.24908424908425|-167.76556776556777|5.128205128205129|-299.6336996336996]
419,2026-02-26 22:18:23,[-116.48351648351648|-204.3956043956044|-267.3992673992674|-63.73626373626374|-317.2161172161172]
420,2026-02-26 22:18:23,[-110.62271062271063|-197.06959706959708|-199.26739926739927|278.38827838827837|822.7106227106227]
421,2026-02-26 22:18:23,[1499.6336996336997|989.7435897435897|-535.5311355311355|-742.1245421245421|-665.934065934066]
422,2026-02-26 22:18:23,[-153.1135531135531|-132.6007326007326|-207.32600732600733|6.593406593406593|-226.37362637362637]
423,2026-02-26 22:18:23,[-14.652014652014651|-60.07326007326007|-126.73992673992674|81.31868131868131|-161.9047619047619]
424,2026-02-26 22:18:24,[67.3992673992674|19.78021978021978|-41.75824175824176|179.48717948717947|-63.73626373626374]
425,2026-02-26 22:18:24,[160.43956043956044|134.06593406593407|81.31868131868131|327.4725274725275|109.15750915750915]
426,2026-02-26 22:18:24,[355.3113553113553|353.84615384615387|313.5531135531136|568.4981684981685|311.35531135531136]
427,2026-02-26 22:18:24,[520.1465201465202|460.0732600732601|331.86813186813185|478.38827838827837|98.9010989010989]
428,2026-02-26 22:18:24,[173.62637362637363|13.91941391941392|-176.55677655677655|-38.827838827838825|-357.5091575091575]
429,2026-02-26 22:18:24,[-205.12820512820514|-268.13186813186815|-381.68498168498166|-161.9047619047619|-424.1758241758242]
430,2026-02-26 22:18:24,[-217.58241758241758|-266.6666666666667|-343.5897435897436|-123.80952380952381|-388.27838827838826]
431,2026-02-26 22:18:24,[-190.47619047619048|-241.02564102564102|-333.3333333333333|-125.27472527472527|-390.4761904761905]
432,2026-02-26 22:18:24,[-195.6043956043956|-216.11721611721612|-305.4945054945055|-97.43589743589743|-362.6373626373626]
433,2026-02-26 22:18:24,[-178.02197802197801|-221.24542124542126|-323.0769230769231|-108.42490842490842|-378.02197802197804]
434,2026-02-26 22:18:24,[-189.74358974358975|-207.32600732600733|-306.959706959707|-84.98168498168498|-354.57875457875457]
435,2026-02-26 22:18:24,[-175.0915750915751|-205.12820512820514|-298.16849816849816|-66.66666666666667|-329.6703296703297]
436,2026-02-26 22:18:24,[-146.5201465201465|-166.3003663003663|-273.2600732600733|-47.61904761904762|-297.43589743589746]
437,2026-02-26 22:18:24,[-120.14652014652015|-122.34432234432235|-201.46520146520146|36.63003663003663|-243.2234432234432]
438,2026-02-26 22:18:24,[-96.7032967032967|-156.04395604395606|-288.64468864468864|-59.34065934065934|-315.75091575091574]
439,2026-02-26 22:18:24,[-142.12454212454213|-154.57875457875457|-260.0732600732601|-27.83882783882784|-161.9047619047619]
440,2026-02-26 22:18:24,[361.17216117216117|1284.2490842490843|1499.6336996336997|589.7435897435897|-753.1135531135532]
441,2026-02-26 22:18:24,[-787.5457875457876|-508.42490842490844|-362.6373626373626|-8.058608058608058|-252.74725274725276]
442,2026-02-26 22:18:24,[-71.06227106227107|-59.34065934065934|-161.17216117216117|88.64468864468864|-157.50915750915752]
443,2026-02-26 22:18:24,[23.44322344322344|16.84981684981685|-86.44688644688645|166.3003663003663|-77.65567765567765]
444,2026-02-26 22:18:24,[101.83150183150182|114.28571428571429|18.315018315018314|280.5860805860806|53.47985347985348]
445,2026-02-26 22:18:24,[249.8168498168498|291.57509157509156|213.1868131868132|501.83150183150184|267.3992673992674]
446,2026-02-26 22:18:24,[456.4102564102564|465.9340659340659|318.68131868131866|553.1135531135532|248.35164835164835]
447,2026-02-26 22:18:24,[311.35531135531136|204.3956043956044|-49.08424908424909|87.17948717948718|-260.0732600732601]
448,2026-02-26 22:18:25,[-172.8937728937729|-211.7216117216117|-366.3003663003663|-146.5201465201465|-425.64102564102564]
449,2026-02-26 22:18:25,[-282.05128205128204|-273.2600732600733|-400.0|-141.3919413919414|-395.6043956043956]
450,2026-02-26 22:18:25,[-241.02564102564102|-225.64102564102564|-355.3113553113553|-103.2967032967033|-357.5091575091575]
451,2026-02-26 22:18:25,[-208.7912087912088|-200.0|-342.12454212454213|-97.43589743589743|-366.3003663003663]
452,2026-02-26 22:18:25,[-229.3040293040293|-214.65201465201466|-355.3113553113553|-110.62271062271063|-369.2307692307692]
453,2026-02-26 22:18:25,[-223.44322344322345|-191.2087912087912|-342.12454212454213|-97.43589743589743|-349.45054945054943]
454,2026-02-26 22:18:25,[-208.05860805860806|-181.6849816849817|-331.13553113553115|-76.92307692307692|-334.7985347985348]
455,2026-02-26 22:18:25,[-194.13919413919413|-161.9047619047619|-307.6923076923077|-50.54945054945055|-310.6227106227106]
456,2026-02-26 22:18:25,[-173.62637362637363|-141.3919413919414|-290.1098901098901|-43.223443223443226|-289.3772893772894]
457,2026-02-26 22:18:25,[-153.1135531135531|-125.27472527472527|-277.65567765567766|16.84981684981685|-208.7912087912088]
458,2026-02-26 22:18:25,[-85.71428571428571|-66.66666666666667|-251.28205128205127|-30.76923076923077|-283.5164835164835]
459,2026-02-26 22:18:25,[-156.04395604395606|-115.01831501831502|-266.6666666666667|-12.454212454212454|-286.4468864468864]
460,2026-02-26 22:18:25,[-129.67032967032966|123.07692307692308|652.7472527472528|1499.6336996336997|1281.3186813186812]
461,2026-02-26 22:18:25,[-178.02197802197801|-800.7326007326008|-665.934065934066|-82.78388278388279|-226.37362637362637]
462,2026-02-26 22:18:25,[-113.55311355311355|-60.8058608058608|-204.3956043956044|65.2014652014652|-161.17216117216117]
463,2026-02-26 22:18:25,[-40.29304029304029|21.245421245421245|-136.996336996337|136.996336996337|-97.43589743589743]
464,2026-02-26 22:18:25,[37.362637362637365|101.83150183150182|-38.827838827838825|243.95604395604394|28.571428571428573]
465,2026-02-26 22:18:25,[160.43956043956044|242.49084249084248|106.95970695970696|418.31501831501834|227.83882783882783]
466,2026-02-26 22:18:25,[369.2307692307692|473.2600732600733|309.15750915750914|583.1501831501831|323.8095238095238]
467,2026-02-26 22:18:25,[395.6043956043956|394.87179487179486|115.01831501831502|260.8058608058608|-89.37728937728937]
468,2026-02-26 22:18:25,[-94.50549450549451|-115.01831501831502|-353.1135531135531|-122.34432234432235|-393.4065934065934]
469,2026-02-26 22:18:25,[-310.6227106227106|-248.35164835164835|-435.16483516483515|-170.6959706959707|-405.12820512820514]
470,2026-02-26 22:18:25,[-305.4945054945055|-236.63003663003664|-405.12820512820514|-126.73992673992674|-352.3809523809524]
471,2026-02-26 22:18:25,[-261.53846153846155|-191.2087912087912|-380.2197802197802|-98.16849816849818|-328.93772893772893]
472,2026-02-26 22:18:25,[-241.02564102564102|-164.83516483516485|-349.45054945054943|-94.50549450549451|-333.3333333333333]
473,2026-02-26 22:18:26,[-242.49084249084248|-172.16117216117217|-360.43956043956047|-90.10989010989012|-319.4139194139194]
474,2026-02-26 22:18:26,[-238.0952380952381|-167.76556776556777|-359.7069597069597|-97.43589743589743|-317.94871794871796]
475,2026-02-26 22:18:26,[-239.56043956043956|-156.04395604395606|-342.85714285714283|-76.19047619047619|-298.16849816849816]
476,2026-02-26 22:18:26,[-213.1868131868132|-136.26373626373626|-329.6703296703297|-62.27106227106227|-276.1904761904762]
477,2026-02-26 22:18:26,[-205.12820512820514|-118.68131868131869|-312.0879120879121|-43.956043956043956|-260.0732600732601]
478,2026-02-26 22:18:26,[-191.2087912087912|-97.43589743589743|-275.45787545787545|-12.454212454212454|-239.56043956043956]
479,2026-02-26 22:18:26,[-120.14652014652015|-5.128205128205129|-205.12820512820514|45.42124542124542|-208.7912087912088]
480,2026-02-26 22:18:26,[-183.88278388278388|-94.50549450549451|-284.98168498168496|-6.593406593406593|-220.51282051282053]
481,2026-02-26 22:18:26,[-158.24175824175825|-71.7948717948718|-271.79487179487177|183.88278388278388|575.0915750915751]
482,2026-02-26 22:18:26,[1499.6336996336997|1499.6336996336997|-29.304029304029303|-661.5384615384615|-674.7252747252747]
483,2026-02-26 22:18:26,[-296.7032967032967|-52.014652014652015|-253.4798534798535|21.978021978021978|-160.43956043956044]
484,2026-02-26 22:18:26,[-99.63369963369964|19.78021978021978|-190.47619047619048|90.10989010989012|-98.9010989010989]
485,2026-02-26 22:18:26,[-30.036630036630036|79.85347985347985|-119.41391941391942|172.16117216117217|-12.454212454212454]
486,2026-02-26 22:18:26,[63.00366300366301|202.1978021978022|17.582417582417584|314.2857142857143|161.17216117216117]
487,2026-02-26 22:18:26,[257.14285714285717|418.31501831501834|240.2930402930403|556.0439560439561|372.8937728937729]
488,2026-02-26 22:18:26,[431.5018315018315|542.1245421245421|290.84249084249086|515.018315018315|226.37362637362637]
489,2026-02-26 22:18:26,[147.25274725274724|145.78754578754578|-189.74358974358975|10.989010989010989|-254.94505494505495]
490,2026-02-26 22:18:26,[-267.3992673992674|-180.95238095238096|-416.8498168498169|-156.04395604395606|-359.7069597069597]
491,2026-02-26 22:18:26,[-324.54212454212455|-200.73260073260073|-425.64102564102564|-153.1135531135531|-336.996336996337]
492,2026-02-26 22:18:26,[-305.4945054945055|-167.03296703296704|-381.68498168498166|-109.15750915750915|-306.959706959707]
493,2026-02-26 22:18:26,[-277.65567765567766|-153.1135531135531|-384.61538461538464|-120.14652014652015|-308.42490842490844]
494,2026-02-26 22:18:26,[-283.5164835164835|-161.9047619047619|-397.0695970695971|-124.54212454212454|-308.42490842490844]
495,2026-02-26 22:18:26,[-287.9120879120879|-158.97435897435898|-387.54578754578756|-124.54212454212454|-302.56410256410254]
496,2026-02-26 22:18:26,[-270.3296703296703|-131.86813186813185|-355.3113553113553|-95.97069597069597|-273.2600732600733]
497,2026-02-26 22:18:26,[-246.8864468864469|-106.95970695970696|-346.5201465201465|-76.92307692307692|-248.35164835164835]
498,2026-02-26 22:18:26,[-230.76923076923077|-97.43589743589743|-320.1465201465202|-46.88644688644688|-216.11721611721612]
499,2026-02-26 22:18:27,[-195.6043956043956|-59.34065934065934|-293.7728937728938|-18.315018315018314|-191.2087912087912]
500,2026-02-26 22:18:27,[-176.55677655677655|-38.095238095238095|-267.3992673992674|12.454212454212454|-147.98534798534797]
501,2026-02-26 22:18:27,[-147.98534798534797|8.058608058608058|-195.6043956043956|72.52747252747253|-106.22710622710623]
502,2026-02-26 22:18:27,[-131.13553113553112|-27.83882783882784|-293.7728937728938|-19.78021978021978|-167.76556776556777]
503,2026-02-26 22:18:27,[-170.6959706959707|-19.78021978021978|-263.003663003663|-3.663003663003663|-37.362637362637365]
504,2026-02-26 22:18:27,[295.97069597069594|1452.014652014652|1499.6336996336997|641.025641025641|-624.9084249084249]
505,2026-02-26 22:18:27,[-824.1758241758242|-361.17216117216117|-353.1135531135531|13.186813186813186|-129.67032967032966]
506,2026-02-26 22:18:27,[-122.34432234432235|43.223443223443226|-173.62637362637363|98.9010989010989|-49.81684981684982]
507,2026-02-26 22:18:27,[-41.75824175824176|123.80952380952381|-112.08791208791209|167.76556776556777|39.56043956043956]
508,2026-02-26 22:18:27,[40.29304029304029|214.65201465201466|-16.84981684981685|267.3992673992674|153.1135531135531]
509,2026-02-26 22:18:27,[179.48717948717947|390.4761904761905|175.0915750915751|490.1098901098901|385.34798534798534]
510,2026-02-26 22:18:27,[393.4065934065934|581.6849816849817|313.5531135531136|554.5787545787546|372.16117216117215]
511,2026-02-26 22:18:27,[277.65567765567766|345.05494505494505|-26.373626373626372|111.35531135531136|-122.34432234432235]
512,2026-02-26 22:18:27,[-221.24542124542126|-110.62271062271063|-403.6630036630037|-167.76556776556777|-318.68131868131866]
513,2026-02-26 22:18:27,[-346.5201465201465|-182.41758241758242|-445.42124542124543|-178.02197802197801|-305.4945054945055]
514,2026-02-26 22:18:27,[-320.1465201465202|-141.3919413919414|-393.4065934065934|-131.86813186813185|-263.003663003663]
515,2026-02-26 22:18:27,[-287.9120879120879|-110.62271062271063|-369.96336996337|-115.01831501831502|-247.61904761904762]
516,2026-02-26 22:18:27,[-286.4468864468864|-112.08791208791209|-383.1501831501831|-131.86813186813185|-263.003663003663]
517,2026-02-26 22:18:27,[-298.9010989010989|-122.34432234432235|-390.4761904761905|-132.6007326007326|-258.6080586080586]
518,2026-02-26 22:18:27,[-297.43589743589746|-119.41391941391942|-387.54578754578756|-131.13553113553112|-249.08424908424908]
519,2026-02-26 22:18:27,[-299.6336996336996|-112.08791208791209|-367.76556776556777|-120.87912087912088|-237.36263736263737]
520,2026-02-26 22:18:27,[-284.24908424908426|-89.37728937728937|-353.84615384615387|-110.62271062271063|-227.83882783882783]
521,2026-02-26 22:18:27,[-265.2014652014652|-72.52747252747253|-329.6703296703297|-88.64468864468864|-193.4065934065934]
522,2026-02-26 22:18:27,[-241.02564102564102|-42.49084249084249|-312.8205128205128|-63.73626373626374|-122.34432234432235]
523,2026-02-26 22:18:28,[-147.25274725274724|32.234432234432234|-261.53846153846155|-56.41025641025641|-191.2087912087912]
524,2026-02-26 22:18:28,[-243.95604395604394|-55.67765567765568|-309.8901098901099|-73.99267399267399|-170.6959706959707]
525,2026-02-26 22:18:28,[-235.89743589743588|15.384615384615385|-15.384615384615385|964.8351648351648|1499.6336996336997]
526,2026-02-26 22:18:28,[1145.0549450549452|-82.78388278388279|-964.8351648351648|-472.5274725274725|-258.6080586080586]
527,2026-02-26 22:18:28,[-190.47619047619048|8.058608058608058|-261.53846153846155|-13.91941391941392|-87.17948717948718]
528,2026-02-26 22:18:28,[-146.5201465201465|66.66666666666667|-191.2087912087912|49.08424908424909|-27.106227106227106]
529,2026-02-26 22:18:28,[-76.92307692307692|136.996336996337|-119.41391941391942|125.27472527472527|63.73626373626374]
530,2026-02-26 22:18:28,[29.304029304029303|263.7362637362637|29.304029304029303|301.0989010989011|272.5274725274725]
531,2026-02-26 22:18:28,[250.54945054945054|510.6227106227106|257.14285714285717|500.3663003663004|435.16483516483515]
532,2026-02-26 22:18:28,[355.3113553113553|545.7875457875458|202.93040293040292|327.4725274725275|133.33333333333334]
533,2026-02-26 22:18:28,[-73.26007326007326|38.827838827838825|-328.93772893772893|-166.3003663003663|-290.1098901098901]
534,2026-02-26 22:18:28,[-400.0|-189.01098901098902|-473.992673992674|-255.67765567765568|-301.0989010989011]
535,2026-02-26 22:18:28,[-387.54578754578756|-158.24175824175825|-421.97802197802196|-182.41758241758242|-257.87545787545787]
536,2026-02-26 22:18:28,[-331.86813186813185|-109.15750915750915|-381.68498168498166|-170.6959706959707|-234.43223443223442]
537,2026-02-26 22:18:28,[-315.01831501831504|-96.7032967032967|-378.02197802197804|-158.97435897435898|-226.37362637362637]
538,2026-02-26 22:18:28,[-323.8095238095238|-106.22710622710623|-381.68498168498166|-173.62637362637363|-235.16483516483515]
539,2026-02-26 22:18:28,[-320.1465201465202|-115.01831501831502|-386.8131868131868|-167.03296703296704|-224.9084249084249]
540,2026-02-26 22:18:28,[-313.5531135531136|-95.97069597069597|-364.1025641025641|-150.1831501831502|-207.32600732600733]
541,2026-02-26 22:18:28,[-289.3772893772894|-60.8058608058608|-345.05494505494505|-131.13553113553112|-178.02197802197801]
542,2026-02-26 22:18:28,[-278.38827838827837|-49.81684981684982|-321.61172161172163|-117.94871794871794|-157.50915750915752]
543,2026-02-26 22:18:28,[-254.21245421245422|-21.245421245421245|-291.57509157509156|-84.24908424908425|-129.67032967032966]
544,2026-02-26 22:18:28,[-238.82783882783883|10.989010989010989|-254.21245421245422|-53.47985347985348|-103.2967032967033]
545,2026-02-26 22:18:28,[-195.6043956043956|73.26007326007326|-176.55677655677655|8.058608058608058|-68.13186813186813]
546,2026-02-26 22:18:28,[-189.74358974358975|13.91941391941392|-283.5164835164835|-84.24908424908425|-123.80952380952381]
547,2026-02-26 22:18:28,[-238.0952380952381|10.989010989010989|-271.06227106227107|-75.45787545787546|34.43223443223443]
548,2026-02-26 22:18:29,[431.5018315018315|1499.6336996336997|1499.6336996336997|275.45787545787545|-721.6117216117216]
549,2026-02-26 22:18:29,[-745.054945054945|-172.16117216117217|-268.13186813186815|-74.72527472527473|-102.56410256410257]
550,2026-02-26 22:18:29,[-206.5934065934066|50.54945054945055|-204.3956043956044|-9.523809523809524|-15.384615384615385]
551,2026-02-26 22:18:29,[-115.75091575091575|134.06593406593407|-124.54212454212454|77.65567765567765|73.99267399267399]
552,2026-02-26 22:18:29,[-31.501831501831504|232.23443223443223|-21.245421245421245|186.8131868131868|219.04761904761904]
553,2026-02-26 22:18:29,[127.47252747252747|419.7802197802198|196.33699633699635|430.03663003663|465.2014652014652]
554,2026-02-26 22:18:29,[363.3699633699634|641.025641025641|356.7765567765568|515.018315018315|453.4798534798535]
555,2026-02-26 22:18:29,[230.03663003663004|359.7069597069597|-47.61904761904762|15.384615384615385|-88.64468864468864]
556,2026-02-26 22:18:29,[-301.0989010989011|-98.9010989010989|-416.8498168498169|-271.79487179487177|-282.05128205128204]
557,2026-02-26 22:18:29,[-415.38461538461536|-167.76556776556777|-439.56043956043953|-263.7362637362637|-258.6080586080586]
558,2026-02-26 22:18:29,[-382.4175824175824|-121.6117216117216|-378.75457875457874|-201.46520146520146|-207.32600732600733]
559,2026-02-26 22:18:29,[-340.65934065934067|-84.98168498168498|-357.5091575091575|-196.33699633699635|-197.06959706959708]
560,2026-02-26 22:18:29,[-339.9267399267399|-88.64468864468864|-361.17216117216117|-204.3956043956044|-191.2087912087912]
561,2026-02-26 22:18:29,[-325.27472527472526|-76.92307692307692|-347.98534798534797|-190.47619047619048|-180.95238095238096]
562,2026-02-26 22:18:29,[-321.61172161172163|-65.2014652014652|-334.7985347985348|-169.23076923076923|-170.6959706959707]
563,2026-02-26 22:18:29,[-309.8901098901099|-59.34065934065934|-326.007326007326|-164.83516483516485|-145.78754578754578]
564,2026-02-26 22:18:29,[-295.23809523809524|-38.827838827838825|-302.56410256410254|-129.67032967032966|-129.67032967032966]
565,2026-02-26 22:18:29,[-284.98168498168496|-24.90842490842491|-293.7728937728938|-144.32234432234432|-129.67032967032966]
566,2026-02-26 22:18:29,[-260.8058608058608|6.593406593406593|-263.003663003663|-98.9010989010989|-49.08424908424909]
567,2026-02-26 22:18:29,[-180.95238095238096|68.13186813186813|-219.04761904761904|-115.75091575091575|-117.94871794871794]
568,2026-02-26 22:18:29,[-268.86446886446885|-2.197802197802198|-260.0732600732601|-119.41391941391942|-88.64468864468864]
569,2026-02-26 22:18:29,[-221.97802197802199|181.6849816849817|287.9120879120879|1424.1758241758241|1499.6336996336997]
570,2026-02-26 22:18:29,[361.17216117216117|-471.06227106227107|-885.7142857142857|-464.46886446886447|-172.8937728937729]
571,2026-02-26 22:18:29,[-219.78021978021977|65.2014652014652|-183.88278388278388|-34.43223443223443|10.989010989010989]
572,2026-02-26 22:18:29,[-132.6007326007326|135.53113553113553|-110.62271062271063|22.71062271062271|76.92307692307692]
573,2026-02-26 22:18:29,[-64.46886446886447|229.3040293040293|-18.315018315018314|120.87912087912088|181.6849816849817]
574,2026-02-26 22:18:30,[30.76923076923077|328.20512820512823|111.35531135531136|287.1794871794872|373.6263736263736]
575,2026-02-26 22:18:30,[245.42124542124543|561.1721611721612|333.3333333333333|468.13186813186815|521.6117216117216]
576,2026-02-26 22:18:30,[315.01831501831504|547.2527472527472|213.1868131868132|213.91941391941393|131.13553113553112]
577,2026-02-26 22:18:30,[-161.17216117216117|30.036630036630036|-287.1794871794872|-219.04761904761904|-208.7912087912088]
578,2026-02-26 22:18:30,[-410.989010989011|-147.25274725274724|-402.1978021978022|-283.5164835164835|-227.83882783882783]
579,2026-02-26 22:18:30,[-395.6043956043956|-114.28571428571429|-365.56776556776555|-246.8864468864469|-180.95238095238096]
580,2026-02-26 22:18:30,[-354.57875457875457|-73.99267399267399|-324.54212454212455|-213.91941391941393|-153.84615384615384]
581,2026-02-26 22:18:30,[-341.3919413919414|-72.52747252747253|-320.1465201465202|-217.58241758241758|-164.83516483516485]
582,2026-02-26 22:18:30,[-349.45054945054943|-85.71428571428571|-323.0769230769231|-235.16483516483515|-179.48717948717947]
583,2026-02-26 22:18:30,[-360.43956043956047|-94.50549450549451|-323.8095238095238|-224.17582417582418|-164.83516483516485]
584,2026-02-26 22:18:30,[-345.7875457875458|-76.92307692307692|-315.75091575091574|-221.24542124542126|-158.24175824175825]
585,2026-02-26 22:18:30,[-340.65934065934067|-61.53846153846154|-301.0989010989011|-205.12820512820514|-97.43589743589743]
586,2026-02-26 22:18:30,[-265.2014652014652|5.128205128205129|-248.35164835164835|-181.6849816849817|-149.45054945054946]
587,2026-02-26 22:18:30,[-352.3809523809524|-71.7948717948718|-302.56410256410254|-210.25641025641025|-136.26373626373626]
588,2026-02-26 22:18:30,[-334.7985347985348|-21.245421245421245|-76.92307692307692|519.4139194139194|1499.6336996336997]
589,2026-02-26 22:18:30,[1162.6373626373627|139.9267399267399|-904.7619047619048|-774.3589743589744|-379.4871794871795]
590,2026-02-26 22:18:30,[-355.3113553113553|-13.186813186813186|-237.36263736263737|-134.06593406593407|-33.6996336996337]
591,2026-02-26 22:18:30,[-235.89743589743588|62.27106227106227|-157.50915750915752|-64.46886446886447|28.571428571428573]
592,2026-02-26 22:18:30,[-167.03296703296704|131.13553113553112|-77.65567765567765|8.058608058608058|115.75091575091575]
593,2026-02-26 22:18:30,[-60.8058608058608|248.35164835164835|54.94505494505494|167.76556776556777|314.2857142857143]
594,2026-02-26 22:18:30,[160.43956043956044|494.5054945054945|309.8901098901099|394.13919413919416|495.97069597069594]
595,2026-02-26 22:18:30,[267.3992673992674|521.6117216117216|230.03663003663004|194.13919413919413|161.9047619047619]
596,2026-02-26 22:18:30,[-164.10256410256412|18.315018315018314|-275.45787545787545|-263.003663003663|-205.86080586080587]
597,2026-02-26 22:18:30,[-449.8168498168498|-188.2783882783883|-405.12820512820514|-336.2637362637363|-243.2234432234432]
598,2026-02-26 22:18:31,[-446.15384615384613|-157.50915750915752|-381.68498168498166|-310.6227106227106|-196.33699633699635]
599,2026-02-26 22:18:31,[-402.9304029304029|-129.67032967032966|-335.53113553113553|-264.46886446886447|-158.97435897435898]
600,2026-02-26 22:18:31,[-383.1501831501831|-106.95970695970696|-320.1465201465202|-274.72527472527474|-170.6959706959707]
601,2026-02-26 22:18:31,[-390.4761904761905|-113.55311355311355|-333.3333333333333|-283.5164835164835|-172.16117216117217]
602,2026-02-26 22:18:31,[-401.46520146520146|-116.48351648351648|-324.54212454212455|-274.72527472527474|-164.83516483516485]
603,2026-02-26 22:18:31,[-387.54578754578756|-100.36630036630036|-298.16849816849816|-249.8168498168498|-131.13553113553112]
604,2026-02-26 22:18:31,[-352.3809523809524|-82.78388278388279|-276.9230769230769|-228.57142857142858|-116.48351648351648]
605,2026-02-26 22:18:31,[-340.65934065934067|-49.08424908424909|-239.56043956043956|-192.67399267399267|-43.223443223443226]
606,2026-02-26 22:18:31,[-243.95604395604394|28.571428571428573|-183.15018315018315|-169.23076923076923|-85.71428571428571]
607,2026-02-26 22:18:31,[-328.93772893772893|-48.35164835164835|-238.0952380952381|-197.06959706959708|-63.00366300366301]
608,2026-02-26 22:18:31,[-301.0989010989011|3.663003663003663|17.582417582417584|753.8461538461538|1499.6336996336997]
609,2026-02-26 22:18:31,[1275.4578754578754|10.989010989010989|-886.4468864468864|-599.2673992673992|-160.43956043956044]
610,2026-02-26 22:18:31,[-289.3772893772894|-8.058608058608058|-182.41758241758242|-146.5201465201465|3.663003663003663]
611,2026-02-26 22:18:31,[-219.04761904761904|57.875457875457876|-106.22710622710623|-63.73626373626374|79.12087912087912]
612,2026-02-26 22:18:31,[-154.57875457875457|139.9267399267399|-21.245421245421245|18.315018315018314|175.82417582417582]
613,2026-02-26 22:18:31,[-32.967032967032964|268.86446886446885|127.47252747252747|203.66300366300365|383.8827838827839]
614,2026-02-26 22:18:31,[185.34798534798534|523.0769230769231|389.7435897435897|428.57142857142856|582.4175824175824]
615,2026-02-26 22:18:31,[310.6227106227106|556.0439560439561|309.8901098901099|216.11721611721612|233.6996336996337]
616,2026-02-26 22:18:31,[-133.33333333333334|38.827838827838825|-204.3956043956044|-252.01465201465203|-153.1135531135531]
617,2026-02-26 22:18:31,[-422.7106227106227|-169.96336996336996|-348.71794871794873|-333.3333333333333|-190.47619047619048]
618,2026-02-26 22:18:31,[-430.03663003663|-157.50915750915752|-317.2161172161172|-306.959706959707|-157.50915750915752]
619,2026-02-26 22:18:31,[-405.86080586080584|-129.67032967032966|-293.7728937728938|-283.5164835164835|-136.996336996337]
620,2026-02-26 22:18:31,[-384.61538461538464|-115.75091575091575|-271.79487179487177|-268.13186813186815|-122.34432234432235]
621,2026-02-26 22:18:31,[-384.61538461538464|-120.87912087912088|-286.4468864468864|-287.9120879120879|-131.86813186813185]
622,2026-02-26 22:18:31,[-381.68498168498166|-115.01831501831502|-274.72527472527474|-278.38827838827837|-123.80952380952381]
623,2026-02-26 22:18:32,[-369.96336996337|-97.43589743589743|-248.35164835164835|-260.0732600732601|-97.43589743589743]
624,2026-02-26 22:18:32,[-346.5201465201465|-87.91208791208791|-224.9084249084249|-227.1062271062271|-71.06227106227107]
625,2026-02-26 22:18:32,[-332.6007326007326|-59.34065934065934|-197.06959706959708|-203.66300366300365|-41.02564102564103]
626,2026-02-26 22:18:32,[-297.43589743589746|-31.501831501831504|-145.05494505494505|-123.07692307692308|38.095238095238095]
627,2026-02-26 22:18:32,[-230.76923076923077|-2.93040293040293|-188.2783882783883|-208.7912087912088|-52.014652014652015]
628,2026-02-26 22:18:32,[-311.35531135531136|-47.61904761904762|-179.48717948717947|-213.1868131868132|-30.76923076923077]
629,2026-02-26 22:18:32,[-106.22710622710623|800.0|1499.6336996336997|1358.974358974359|34.43223443223443]
630,2026-02-26 22:18:32,[-978.7545787545788|-504.76190476190476|-312.0879120879121|-195.6043956043956|-5.86080586080586]
631,2026-02-26 22:18:32,[-262.27106227106225|16.117216117216117|-100.36630036630036|-113.55311355311355|74.72527472527473]
632,2026-02-26 22:18:32,[-178.02197802197801|88.64468864468864|-19.047619047619047|-32.234432234432234|158.24175824175825]
633,2026-02-26 22:18:32,[-84.98168498168498|192.67399267399267|91.57509157509158|84.24908424908425|290.1098901098901]
634,2026-02-26 22:18:32,[54.94505494505494|356.04395604395603|295.97069597069594|315.75091575091574|554.5787545787546]
635,2026-02-26 22:18:32,[319.4139194139194|607.3260073260074|495.23809523809524|447.6190476190476|604.3956043956044]
636,2026-02-26 22:18:32,[261.53846153846155|402.1978021978022|153.1135531135531|-9.523809523809524|63.73626373626374]
637,2026-02-26 22:18:32,[-298.9010989010989|-111.35531135531136|-264.46886446886447|-336.2637362637363|-167.76556776556777]
638,2026-02-26 22:18:32,[-451.28205128205127|-204.3956043956044|-311.35531135531136|-357.5091575091575|-156.04395604395606]
639,2026-02-26 22:18:32,[-424.90842490842493|-169.96336996336996|-274.72527472527474|-312.0879120879121|-121.6117216117216]
640,2026-02-26 22:18:32,[-389.010989010989|-144.32234432234432|-254.21245421245422|-298.16849816849816|-106.22710622710623]
641,2026-02-26 22:18:32,[-371.42857142857144|-135.53113553113553|-242.49084249084248|-298.9010989010989|-108.42490842490842]
642,2026-02-26 22:18:32,[-380.95238095238096|-126.73992673992674|-228.57142857142858|-289.3772893772894|-95.97069597069597]
643,2026-02-26 22:18:32,[-364.83516483516485|-115.01831501831502|-208.7912087912088|-265.2014652014652|-65.2014652014652]
644,2026-02-26 22:18:32,[-334.7985347985348|-98.9010989010989|-193.4065934065934|-252.74725274725276|-49.08424908424909]
645,2026-02-26 22:18:32,[-321.61172161172163|-85.71428571428571|-167.76556776556777|-230.76923076923077|-38.827838827838825]
646,2026-02-26 22:18:32,[-317.2161172161172|-71.06227106227107|-153.84615384615384|-216.11721611721612|14.652014652014651]
647,2026-02-26 22:18:32,[-241.02564102564102|-9.523809523809524|-109.15750915750915|-200.0|-37.362637362637365]
648,2026-02-26 22:18:32,[-322.34432234432234|-87.17948717948718|-160.43956043956044|-228.57142857142858|-27.106227106227106]
649,2026-02-26 22:18:33,[-304.02930402930406|-38.827838827838825|60.07326007326007|462.27106227106225|1499.6336996336997]
650,2026-02-26 22:18:33,[1317.948717948718|183.88278388278388|-750.9157509157509|-835.8974358974359|-315.75091575091574]
651,2026-02-26 22:18:33,[-352.3809523809524|-50.54945054945055|-100.36630036630036|-167.03296703296704|64.46886446886447]
652,2026-02-26 22:18:33,[-197.06959706959708|40.29304029304029|-21.245421245421245|-88.64468864468864|147.25274725274724]
653,2026-02-26 22:18:33,[-115.75091575091575|115.01831501831502|68.13186813186813|16.84981684981685|249.08424908424908]
654,2026-02-26 22:18:33,[-19.047619047619047|226.37362637362637|195.6043956043956|151.64835164835165|419.04761904761904]
655,2026-02-26 22:18:33,[191.2087912087912|447.6190476190476|418.31501831501834|347.98534798534797|580.952380952381]
656,2026-02-26 22:18:33,[289.3772893772894|476.1904761904762|346.5201465201465|155.3113553113553|263.7362637362637]
657,2026-02-26 22:18:33,[-134.06593406593407|-19.78021978021978|-158.97435897435898|-321.61172161172163|-126.73992673992674]
658,2026-02-26 22:18:33,[-440.2930402930403|-235.89743589743588|-293.7728937728938|-365.56776556776555|-150.1831501831502]
659,2026-02-26 22:18:33,[-434.43223443223445|-211.7216117216117|-258.6080586080586|-352.3809523809524|-118.68131868131869]
660,2026-02-26 22:18:33,[-396.3369963369963|-183.15018315018315|-223.44322344322345|-323.0769230769231|-86.44688644688645]
661,2026-02-26 22:18:33,[-367.032967032967|-164.83516483516485|-214.65201465201466|-311.35531135531136|-89.37728937728937]
662,2026-02-26 22:18:33,[-377.2893772893773|-177.28937728937728|-227.83882783882783|-325.27472527472526|-89.37728937728937]
663,2026-02-26 22:18:33,[-378.02197802197804|-167.76556776556777|-217.58241758241758|-321.61172161172163|-85.71428571428571]
664,2026-02-26 22:18:33,[-365.56776556776555|-169.96336996336996|-208.7912087912088|-317.2161172161172|-76.92307692307692]
665,2026-02-26 22:18:33,[-353.84615384615387|-161.17216117216117|-195.6043956043956|-290.84249084249086|-64.46886446886447]
666,2026-02-26 22:18:33,[-352.3809523809524|-153.84615384615384|-174.35897435897436|-282.7838827838828|-41.75824175824176]
667,2026-02-26 22:18:33,[-320.1465201465202|-123.07692307692308|-156.04395604395606|-257.87545787545787|18.315018315018314]
668,2026-02-26 22:18:33,[-241.02564102564102|-60.8058608058608|-101.83150183150182|-254.94505494505495|-32.967032967032964]
669,2026-02-26 22:18:33,[-320.8791208791209|-126.00732600732601|-153.1135531135531|-264.46886446886447|-12.454212454212454]
670,2026-02-26 22:18:33,[-299.6336996336996|-94.50549450549451|91.57509157509158|621.978021978022|1499.6336996336997]
671,2026-02-26 22:18:33,[1232.967032967033|-42.49084249084249|-798.5347985347985|-686.4468864468864|-127.47252747252747]
672,2026-02-26 22:18:33,[-273.992673992674|-85.71428571428571|-90.10989010989012|-200.0|63.73626373626374]
673,2026-02-26 22:18:34,[-199.26739926739927|-2.197802197802198|-5.86080586080586|-125.27472527472527|131.13553113553112]
674,2026-02-26 22:18:34,[-131.86813186813185|54.21245421245421|56.41025641025641|-53.47985347985348|221.24542124542126]
675,2026-02-26 22:18:34,[-32.234432234432234|171.42857142857142|206.5934065934066|126.00732600732601|427.1062271062271]
676,2026-02-26 22:18:34,[196.33699633699635|418.31501831501834|462.27106227106225|343.5897435897436|626.3736263736264]
677,2026-02-26 22:18:34,[321.61172161172163|454.2124542124542|389.7435897435897|135.53113553113553|265.9340659340659]
678,2026-02-26 22:18:34,[-122.34432234432235|-54.94505494505494|-136.996336996337|-333.3333333333333|-109.15750915750915]
679,2026-02-26 22:18:34,[-423.4432234432234|-261.53846153846155|-263.003663003663|-409.5238095238095|-158.97435897435898]
680,2026-02-26 22:18:34,[-432.23443223443223|-264.46886446886447|-254.94505494505495|-394.13919413919416|-110.62271062271063]
681,2026-02-26 22:18:34,[-379.4871794871795|-216.11721611721612|-206.5934065934066|-340.65934065934067|-80.58608058608058]
682,2026-02-26 22:18:34,[-359.7069597069597|-200.0|-190.47619047619048|-344.32234432234435|-83.51648351648352]
683,2026-02-26 22:18:34,[-364.83516483516485|-213.91941391941393|-200.0|-355.3113553113553|-97.43589743589743]
684,2026-02-26 22:18:34,[-371.42857142857144|-219.78021978021977|-202.1978021978022|-342.85714285714283|-79.85347985347985]
685,2026-02-26 22:18:34,[-357.5091575091575|-214.65201465201466|-182.41758241758242|-333.3333333333333|-66.66666666666667]
686,2026-02-26 22:18:34,[-336.2637362637363|-183.88278388278388|-157.50915750915752|-311.35531135531136|-41.02564102564103]
687,2026-02-26 22:18:34,[-307.6923076923077|-157.50915750915752|-122.34432234432235|-284.98168498168496|-16.84981684981685]
688,2026-02-26 22:18:34,[-273.2600732600733|-123.80952380952381|-107.6923076923077|-262.27106227106225|5.128205128205129]
689,2026-02-26 22:18:34,[-248.35164835164835|-106.22710622710623|-80.58608058608058|-243.2234432234432|21.245421245421245]
690,2026-02-26 22:18:34,[-251.28205128205127|-113.55311355311355|-84.24908424908425|-237.36263736263737|41.75824175824176]
691,2026-02-26 22:18:34,[-227.1062271062271|-97.43589743589743|-25.641025641025642|-167.76556776556777|79.85347985347985]
692,2026-02-26 22:18:34,[-214.65201465201466|-109.15750915750915|-101.83150183150182|-265.9340659340659|14.652014652014651]
693,2026-02-26 22:18:34,[-252.74725274725276|-126.73992673992674|-87.91208791208791|-273.2600732600733|18.315018315018314]
694,2026-02-26 22:18:34,[-24.175824175824175|824.1758241758242|1499.6336996336997|1216.1172161172162|18.315018315018314]
695,2026-02-26 22:18:34,[-892.3076923076923|-500.3663003663004|-157.50915750915752|-242.49084249084248|31.501831501831504]
696,2026-02-26 22:18:34,[-214.65201465201466|-66.66666666666667|-7.326007326007326|-158.97435897435898|115.01831501831502]
697,2026-02-26 22:18:34,[-131.86813186813185|5.128205128205129|63.73626373626374|-94.50549450549451|195.6043956043956]
698,2026-02-26 22:18:35,[-43.956043956043956|86.44688644688645|168.4981684981685|27.83882783882784|324.54212454212455]
699,2026-02-26 22:18:35,[100.36630036630036|251.28205128205127|354.57875457875457|221.97802197802199|571.4285714285714]
700,2026-02-26 22:18:35,[350.9157509157509|490.84249084249086|560.4395604395604|358.97435897435895|634.4322344322344]
701,2026-02-26 22:18:35,[304.02930402930406|308.42490842490844|239.56043956043956|-82.78388278388279|80.58608058608058]
702,2026-02-26 22:18:35,[-254.21245421245422|-216.11721611721612|-201.46520146520146|-427.1062271062271|-158.97435897435898]
703,2026-02-26 22:18:35,[-418.31501831501834|-323.8095238095238|-254.94505494505495|-451.28205128205127|-164.83516483516485]
704,2026-02-26 22:18:35,[-408.05860805860806|-288.64468864468864|-209.52380952380952|-393.4065934065934|-102.56410256410257]
705,2026-02-26 22:18:35,[-344.32234432234435|-239.56043956043956|-161.9047619047619|-362.6373626373626|-82.78388278388279]
706,2026-02-26 22:18:35,[-325.27472527472526|-229.3040293040293|-158.97435897435898|-356.7765567765568|-73.99267399267399]
707,2026-02-26 22:18:35,[-323.0769230769231|-243.95604395604394|-164.83516483516485|-367.76556776556777|-79.85347985347985]
708,2026-02-26 22:18:35,[-323.0769230769231|-242.49084249084248|-161.17216117216117|-345.05494505494505|-71.06227106227107]
709,2026-02-26 22:18:35,[-317.2161172161172|-229.3040293040293|-155.3113553113553|-352.3809523809524|-65.2014652014652]
710,2026-02-26 22:18:35,[-296.7032967032967|-208.7912087912088|-126.73992673992674|-332.6007326007326|-49.08424908424909]
711,2026-02-26 22:18:35,[-277.65567765567766|-202.1978021978022|-112.08791208791209|-311.35531135531136|-32.967032967032964]
712,2026-02-26 22:18:35,[-260.0732600732601|-172.16117216117217|-96.7032967032967|-308.42490842490844|-15.384615384615385]
713,2026-02-26 22:18:35,[-243.2234432234432|-167.76556776556777|-68.13186813186813|-267.3992673992674|25.641025641025642]
714,2026-02-26 22:18:35,[-192.67399267399267|-120.87912087912088|-18.315018315018314|-197.06959706959708|97.43589743589743]
715,2026-02-26 22:18:35,[-126.00732600732601|-76.92307692307692|-19.78021978021978|-249.8168498168498|30.76923076923077]
716,2026-02-26 22:18:35,[-196.33699633699635|-123.07692307692308|-29.304029304029303|-237.36263736263737|43.956043956043956]
717,2026-02-26 22:18:35,[-106.22710622710623|191.2087912087912|975.8241758241758|1499.6336996336997|1234.4322344322345]
718,2026-02-26 22:18:35,[-324.54212454212455|-803.6630036630037|-519.4139194139194|-450.54945054945057|10.989010989010989]
719,2026-02-26 22:18:35,[-179.48717948717947|-120.87912087912088|10.989010989010989|-201.46520146520146|90.10989010989012]
720,2026-02-26 22:18:35,[-122.34432234432235|-55.67765567765568|68.13186813186813|-147.25274725274724|147.25274725274724]
721,2026-02-26 22:18:35,[-52.014652014652015|21.978021978021978|150.1831501831502|-52.747252747252745|250.54945054945054]
722,2026-02-26 22:18:35,[53.47985347985348|134.06593406593407|301.0989010989011|110.62271062271063|449.0842490842491]
723,2026-02-26 22:18:35,[292.3076923076923|380.2197802197802|526.7399267399268|296.7032967032967|582.4175824175824]
724,2026-02-26 22:18:36,[345.05494505494505|333.3333333333333|349.45054945054943|-13.186813186813186|154.57875457875457]
725,2026-02-26 22:18:36,[-146.5201465201465|-179.48717948717947|-122.34432234432235|-400.0|-134.7985347985348]
726,2026-02-26 22:18:36,[-353.84615384615387|-331.86813186813185|-210.98901098901098|-450.54945054945057|-160.43956043956044]
727,2026-02-26 22:18:36,[-355.3113553113553|-315.75091575091574|-189.01098901098902|-413.9194139194139|-126.73992673992674]
728,2026-02-26 22:18:36,[-328.93772893772893|-290.84249084249086|-156.04395604395606|-383.8827838827839|-99.63369963369964]
729,2026-02-26 22:18:36,[-294.5054945054945|-263.003663003663|-150.1831501831502|-403.6630036630037|-109.15750915750915]
730,2026-02-26 22:18:36,[-309.8901098901099|-290.84249084249086|-154.57875457875457|-394.13919413919416|-119.41391941391942]
731,2026-02-26 22:18:36,[-307.6923076923077|-286.4468864468864|-142.85714285714286|-380.2197802197802|-88.64468864468864]
732,2026-02-26 22:18:36,[-290.84249084249086|-254.94505494505495|-115.01831501831502|-358.24175824175825|-71.7948717948718]
733,2026-02-26 22:18:36,[-258.6080586080586|-230.76923076923077|-88.64468864468864|-338.46153846153845|-54.94505494505494]
734,2026-02-26 22:18:36,[-246.15384615384616|-220.51282051282053|-76.92307692307692|-323.0769230769231|-50.54945054945055]
735,2026-02-26 22:18:36,[-220.51282051282053|-208.7912087912088|-65.93406593406593|-302.56410256410254|-27.83882783882784]
736,2026-02-26 22:18:36,[-211.7216117216117|-197.06959706959708|-59.34065934065934|-302.56410256410254|-24.175824175824175]
737,2026-02-26 22:18:36,[-202.1978021978022|-190.47619047619048|-43.956043956043956|-290.84249084249086|-3.663003663003663]
738,2026-02-26 22:18:36,[-166.3003663003663|-160.43956043956044|12.454212454212454|-202.93040293040292|77.65567765567765]
739,2026-02-26 22:18:36,[-112.08791208791209|-126.73992673992674|-15.384615384615385|-284.98168498168496|-15.384615384615385]
740,2026-02-26 22:18:36,[-178.02197802197801|-167.03296703296704|-17.582417582417584|-263.003663003663|12.454212454212454]
741,2026-02-26 22:18:36,[-29.304029304029303|420.5128205128205|1499.6336996336997|1499.6336996336997|526.7399267399268]
742,2026-02-26 22:18:36,[-720.1465201465202|-705.4945054945055|-197.06959706959708|-270.3296703296703|30.036630036630036]
743,2026-02-26 22:18:36,[-131.13553113553112|-125.27472527472527|52.747252747252745|-200.0|84.24908424908425]
744,2026-02-26 22:18:36,[-63.73626373626374|-65.2014652014652|104.76190476190476|-147.25274725274724|136.996336996337]
745,2026-02-26 22:18:36,[-3.663003663003663|4.395604395604396|193.4065934065934|-54.94505494505494|243.2234432234432]
746,2026-02-26 22:18:36,[135.53113553113553|155.3113553113553|362.6373626373626|153.84615384615384|485.7142857142857]
747,2026-02-26 22:18:36,[380.2197802197802|402.1978021978022|604.3956043956044|327.4725274725275|607.3260073260074]
748,2026-02-26 22:18:36,[391.94139194139194|264.46886446886447|336.2637362637363|-65.2014652014652|86.44688644688645]
749,2026-02-26 22:18:37,[-147.98534798534797|-249.8168498168498|-132.6007326007326|-445.42124542124543|-191.94139194139194]
750,2026-02-26 22:18:37,[-346.5201465201465|-391.94139194139194|-213.91941391941393|-475.45787545787545|-192.67399267399267]
751,2026-02-26 22:18:37,[-331.86813186813185|-351.64835164835165|-164.10256410256412|-430.03663003663|-149.45054945054946]
752,2026-02-26 22:18:37,[-282.05128205128204|-309.8901098901099|-134.06593406593407|-408.05860805860806|-135.53113553113553]
753,2026-02-26 22:18:37,[-270.3296703296703|-295.23809523809524|-107.6923076923077|-378.75457875457874|-115.01831501831502]
754,2026-02-26 22:18:37,[-254.94505494505495|-298.9010989010989|-122.34432234432235|-402.1978021978022|-142.85714285714286]
755,2026-02-26 22:18:37,[-276.1904761904762|-312.8205128205128|-121.6117216117216|-396.3369963369963|-126.00732600732601]
756,2026-02-26 22:18:37,[-249.8168498168498|-284.24908424908426|-106.22710622710623|-366.3003663003663|-103.2967032967033]
757,2026-02-26 22:18:37,[-236.63003663003664|-260.8058608058608|-65.2014652014652|-343.5897435897436|-85.71428571428571]
758,2026-02-26 22:18:37,[-202.93040293040292|-230.03663003663004|-38.827838827838825|-317.2161172161172|-55.67765567765568]
759,2026-02-26 22:18:37,[-177.28937728937728|-227.83882783882783|-38.095238095238095|-308.42490842490844|-50.54945054945055]
760,2026-02-26 22:18:37,[-165.56776556776558|-207.32600732600733|-14.652014652014651|-296.7032967032967|-25.641025641025642]
761,2026-02-26 22:18:37,[-141.3919413919414|-197.06959706959708|6.593406593406593|-282.05128205128204|-21.245421245421245]
762,2026-02-26 22:18:37,[-132.6007326007326|-192.67399267399267|-7.326007326007326|-298.16849816849816|-36.63003663003663]
763,2026-02-26 22:18:37,[-145.78754578754578|-204.3956043956044|-5.86080586080586|-241.75824175824175|29.304029304029303]
764,2026-02-26 22:18:37,[-72.52747252747253|-164.83516483516485|10.989010989010989|-296.7032967032967|-62.27106227106227]
765,2026-02-26 22:18:37,[-164.83516483516485|-214.65201465201466|-12.454212454212454|-287.9120879120879|-50.54945054945055]
766,2026-02-26 22:18:37,[-130.4029304029304|-16.84981684981685|840.2930402930403|1499.6336996336997|1499.6336996336997]
767,2026-02-26 22:18:37,[40.29304029304029|-799.2673992673992|-390.4761904761905|-379.4871794871795|-1.465201465201465]
768,2026-02-26 22:18:37,[-72.52747252747253|-141.3919413919414|79.85347985347985|-194.87179487179486|66.66666666666667]
769,2026-02-26 22:18:37,[-12.454212454212454|-74.72527472527473|156.04395604395606|-115.01831501831502|137.72893772893772]
770,2026-02-26 22:18:37,[75.45787545787546|27.83882783882784|253.4798534798535|-19.78021978021978|249.8168498168498]
771,2026-02-26 22:18:37,[185.34798534798534|144.32234432234432|398.53479853479854|161.9047619047619|449.0842490842491]
772,2026-02-26 22:18:37,[415.38461538461536|389.010989010989|660.8058608058608|363.3699633699634|617.5824175824176]
773,2026-02-26 22:18:38,[511.35531135531136|369.96336996337|503.2967032967033|87.17948717948718|194.13919413919413]
774,2026-02-26 22:18:38,[-8.058608058608058|-189.74358974358975|-49.81684981684982|-391.2087912087912|-193.4065934065934]
775,2026-02-26 22:18:38,[-287.9120879120879|-395.6043956043956|-166.3003663003663|-452.01465201465203|-216.11721611721612]
776,2026-02-26 22:18:38,[-287.9120879120879|-355.3113553113553|-131.13553113553112|-416.8498168498169|-173.62637362637363]
777,2026-02-26 22:18:38,[-246.8864468864469|-334.7985347985348|-103.2967032967033|-391.94139194139194|-158.97435897435898]
778,2026-02-26 22:18:38,[-219.04761904761904|-314.2857142857143|-87.17948717948718|-377.2893772893773|-149.45054945054946]
779,2026-02-26 22:18:38,[-218.3150183150183|-317.2161172161172|-93.77289377289377|-387.54578754578756|-166.3003663003663]
780,2026-02-26 22:18:38,[-224.9084249084249|-311.35531135531136|-93.77289377289377|-389.7435897435897|-161.17216117216117]
781,2026-02-26 22:18:38,[-214.65201465201466|-308.42490842490844|-85.71428571428571|-381.68498168498166|-160.43956043956044]
782,2026-02-26 22:18:38,[-207.32600732600733|-318.68131868131866|-83.51648351648352|-358.24175824175825|-142.12454212454213]
783,2026-02-26 22:18:38,[-192.67399267399267|-284.98168498168496|-52.014652014652015|-343.5897435897436|-123.07692307692308]
784,2026-02-26 22:18:38,[-169.23076923076923|-258.6080586080586|-16.117216117216117|-299.6336996336996|-100.36630036630036]
785,2026-02-26 22:18:38,[-145.78754578754578|-242.49084249084248|5.128205128205129|-282.7838827838828|-65.2014652014652]
786,2026-02-26 22:18:38,[-112.08791208791209|-202.93040293040292|43.223443223443226|-252.74725274725276|-40.29304029304029]
787,2026-02-26 22:18:38,[-52.014652014652015|-142.85714285714286|87.91208791208791|-219.04761904761904|-37.362637362637365]
788,2026-02-26 22:18:38,[-109.15750915750915|-229.3040293040293|6.593406593406593|-271.79487179487177|-60.8058608058608]
789,2026-02-26 22:18:38,[-96.7032967032967|-208.7912087912088|60.8058608058608|-36.63003663003663|684.981684981685]
790,2026-02-26 22:18:38,[1499.6336996336997|1206.5934065934066|139.9267399267399|-907.6923076923077|-616.1172161172161]
791,2026-02-26 22:18:38,[-345.05494505494505|-270.3296703296703|18.315018315018314|-267.3992673992674|-47.61904761904762]
792,2026-02-26 22:18:38,[-53.47985347985348|-157.50915750915752|100.36630036630036|-176.55677655677655|38.827838827838825]
793,2026-02-26 22:18:38,[28.571428571428573|-87.91208791208791|172.16117216117217|-98.9010989010989|110.62271062271063]
794,2026-02-26 22:18:38,[109.15750915750915|13.186813186813186|290.1098901098901|28.571428571428573|257.14285714285717]
795,2026-02-26 22:18:38,[299.6336996336996|220.51282051282053|544.3223443223443|295.23809523809524|514.2857142857143]
796,2026-02-26 22:18:38,[515.018315018315|396.3369963369963|639.5604395604396|284.98168498168496|380.95238095238096]
797,2026-02-26 22:18:38,[227.83882783882783|-41.75824175824176|103.2967032967033|-286.4468864468864|-159.7069597069597]
798,2026-02-26 22:18:38,[-226.37362637362637|-394.13919413919416|-164.10256410256412|-464.46886446886447|-290.84249084249086]
799,2026-02-26 22:18:39,[-301.0989010989011|-431.5018315018315|-172.16117216117217|-452.01465201465203|-271.06227106227107]
800,2026-02-26 22:18:39,[-275.45787545787545|-397.8021978021978|-134.06593406593407|-428.57142857142856|-235.16483516483515]
801,2026-02-26 22:18:39,[-227.83882783882783|-369.96336996337|-111.35531135531136|-402.9304029304029|-214.65201465201466]
802,2026-02-26 22:18:39,[-217.58241758241758|-357.5091575091575|-106.22710622710623|-389.010989010989|-217.58241758241758]
803,2026-02-26 22:18:39,[-224.9084249084249|-369.2307692307692|-103.2967032967033|-387.54578754578756|-211.7216117216117]
804,2026-02-26 22:18:39,[-206.5934065934066|-333.3333333333333|-73.26007326007326|-361.17216117216117|-178.02197802197801]
805,2026-02-26 22:18:39,[-172.8937728937729|-314.2857142857143|-43.223443223443226|-333.3333333333333|-167.76556776556777]
806,2026-02-26 22:18:39,[-158.24175824175825|-298.16849816849816|-35.8974358974359|-321.61172161172163|-167.76556776556777]
807,2026-02-26 22:18:39,[-154.57875457875457|-299.6336996336996|-29.304029304029303|-311.35531135531136|-134.06593406593407]
808,2026-02-26 22:18:39,[-124.54212454212454|-274.72527472527474|-13.186813186813186|-296.7032967032967|-145.78754578754578]
809,2026-02-26 22:18:39,[-112.08791208791209|-264.46886446886447|-9.523809523809524|-273.2600732600733|-61.53846153846154]
810,2026-02-26 22:18:39,[-28.571428571428573|-190.47619047619048|54.94505494505494|-267.3992673992674|-136.996336996337]
811,2026-02-26 22:18:39,[-119.41391941391942|-258.6080586080586|17.582417582417584|-273.992673992674|-113.55311355311355]
812,2026-02-26 22:18:39,[-96.7032967032967|-175.0915750915751|424.90842490842493|1052.7472527472528|1499.6336996336997]
813,2026-02-26 22:18:39,[913.5531135531136|-594.1391941391942|-613.1868131868132|-557.5091575091575|-158.24175824175825]
814,2026-02-26 22:18:39,[-56.41025641025641|-219.78021978021977|66.66666666666667|-219.04761904761904|-54.94505494505494]
815,2026-02-26 22:18:39,[13.186813186813186|-142.85714285714286|139.9267399267399|-136.996336996337|19.047619047619047]
816,2026-02-26 22:18:39,[68.13186813186813|-79.85347985347985|216.11721611721612|-59.34065934065934|113.55311355311355]
817,2026-02-26 22:18:39,[178.02197802197801|37.362637362637365|365.56776556776555|139.9267399267399|333.3333333333333]
818,2026-02-26 22:18:39,[419.04761904761904|295.97069597069594|630.0366300366301|380.2197802197802|515.018315018315]
819,2026-02-26 22:18:39,[556.7765567765567|336.2637362637363|556.0439560439561|156.7765567765568|158.24175824175825]
820,2026-02-26 22:18:39,[68.86446886446886|-216.84981684981685|-25.641025641025642|-353.84615384615387|-263.003663003663]
821,2026-02-26 22:18:39,[-238.0952380952381|-431.5018315018315|-159.7069597069597|-452.01465201465203|-311.35531135531136]
822,2026-02-26 22:18:39,[-252.01465201465203|-427.1062271062271|-143.5897435897436|-413.1868131868132|-265.9340659340659]
823,2026-02-26 22:18:40,[-201.46520146520146|-390.4761904761905|-96.7032967032967|-353.84615384615387|-227.83882783882783]
824,2026-02-26 22:18:40,[-178.02197802197801|-359.7069597069597|-75.45787545787546|-340.65934065934067|-217.58241758241758]
825,2026-02-26 22:18:40,[-177.28937728937728|-358.97435897435895|-87.91208791208791|-357.5091575091575|-241.02564102564102]
826,2026-02-26 22:18:40,[-182.41758241758242|-361.17216117216117|-102.56410256410257|-353.84615384615387|-242.49084249084248]
827,2026-02-26 22:18:40,[-183.88278388278388|-334.0659340659341|-98.9010989010989|-318.68131868131866|-219.78021978021977]
828,2026-02-26 22:18:40,[-157.50915750915752|-296.7032967032967|-71.06227106227107|-283.5164835164835|-194.13919413919413]
829,2026-02-26 22:18:40,[-164.10256410256412|-277.65567765567766|-65.93406593406593|-242.49084249084248|-175.0915750915751]
830,2026-02-26 22:18:40,[-164.83516483516485|-230.03663003663004|-49.81684981684982|-214.65201465201466|-126.00732600732601]
831,2026-02-26 22:18:40,[-72.52747252747253|-158.97435897435898|25.641025641025642|-214.65201465201466|-126.73992673992674]
832,2026-02-26 22:18:40,[-99.63369963369964|-251.28205128205127|-15.384615384615385|-221.24542124542126|-126.73992673992674]
833,2026-02-26 22:18:40,[-63.73626373626374|-220.51282051282053|63.00366300366301|50.54945054945055|698.1684981684982]
834,2026-02-26 22:18:40,[1499.6336996336997|1232.967032967033|88.64468864468864|-860.8058608058608|-674.7252747252747]
835,2026-02-26 22:18:40,[-309.8901098901099|-274.72527472527474|32.967032967032964|-179.48717948717947|-88.64468864468864]
836,2026-02-26 22:18:40,[-13.91941391941392|-165.56776556776558|106.95970695970696|-106.22710622710623|-19.78021978021978]
837,2026-02-26 22:18:40,[66.66666666666667|-98.9010989010989|182.41758241758242|-30.036630036630036|76.92307692307692]
838,2026-02-26 22:18:40,[175.0915750915751|5.86080586080586|290.1098901098901|101.83150183150182|227.83882783882783]
839,2026-02-26 22:18:40,[355.3113553113553|200.0|532.6007326007326|345.7875457875458|456.4102564102564]
840,2026-02-26 22:18:40,[567.7655677655678|349.45054945054943|607.3260073260074|304.02930402930406|280.5860805860806]
841,2026-02-26 22:18:40,[239.56043956043956|-94.50549450549451|77.65567765567765|-248.35164835164835|-241.02564102564102]
842,2026-02-26 22:18:40,[-191.2087912087912|-430.03663003663|-170.6959706959707|-413.9194139194139|-345.05494505494505]
843,2026-02-26 22:18:40,[-243.95604395604394|-449.0842490842491|-171.42857142857142|-386.8131868131868|-308.42490842490844]
844,2026-02-26 22:18:40,[-213.1868131868132|-410.989010989011|-122.34432234432235|-349.45054945054943|-287.1794871794872]
845,2026-02-26 22:18:40,[-178.75457875457874|-387.54578754578756|-107.6923076923077|-334.0659340659341|-267.3992673992674]
846,2026-02-26 22:18:40,[-173.62637362637363|-390.4761904761905|-112.08791208791209|-343.5897435897436|-282.05128205128204]
847,2026-02-26 22:18:40,[-181.6849816849817|-399.26739926739924|-112.82051282051282|-330.4029304029304|-285.7142857142857]
848,2026-02-26 22:18:41,[-166.3003663003663|-383.8827838827839|-95.23809523809524|-302.56410256410254|-243.2234432234432]
849,2026-02-26 22:18:41,[-141.3919413919414|-359.7069597069597|-65.2014652014652|-277.65567765567766|-213.1868131868132]
850,2026-02-26 22:18:41,[-106.22710622710623|-330.4029304029304|-52.014652014652015|-260.8058608058608|-200.0]
851,2026-02-26 22:18:41,[-76.92307692307692|-302.56410256410254|-30.036630036630036|-205.86080586080587|-130.4029304029304]
852,2026-02-26 22:18:41,[-16.84981684981685|-252.74725274725276|8.058608058608058|-251.28205128205127|-216.11721611721612]
853,2026-02-26 22:18:41,[-100.36630036630036|-311.35531135531136|-38.095238095238095|-248.35164835164835|-201.46520146520146]
854,2026-02-26 22:18:41,[-66.66666666666667|-123.07692307692308|758.2417582417582|1499.6336996336997|1499.6336996336997]
855,2026-02-26 22:18:41,[116.48351648351648|-953.1135531135532|-486.4468864468864|-351.64835164835165|-154.57875457875457]
856,2026-02-26 22:18:41,[-17.582417582417584|-243.2234432234432|44.688644688644686|-132.6007326007326|-79.85347985347985]
857,2026-02-26 22:18:41,[43.956043956043956|-178.02197802197801|112.08791208791209|-78.3882783882784|-18.315018315018314]
858,2026-02-26 22:18:41,[120.14652014652015|-97.43589743589743|207.32600732600733|34.43223443223443|87.17948717948718]
859,2026-02-26 22:18:41,[252.01465201465203|53.47985347985348|387.54578754578756|241.02564102564102|324.54212454212455]
860,2026-02-26 22:18:41,[519.4139194139194|312.0879120879121|635.1648351648352|434.43223443223445|450.54945054945057]
861,2026-02-26 22:18:41,[569.2307692307693|248.35164835164835|427.1062271062271|93.04029304029304|-12.454212454212454]
862,2026-02-26 22:18:41,[17.582417582417584|-309.8901098901099|-95.23809523809524|-331.86813186813185|-341.3919413919414]
863,2026-02-26 22:18:41,[-224.17582417582418|-482.7838827838828|-203.66300366300365|-393.4065934065934|-367.76556776556777]
864,2026-02-26 22:18:41,[-220.51282051282053|-469.5970695970696|-178.02197802197801|-355.3113553113553|-334.7985347985348]
865,2026-02-26 22:18:41,[-180.95238095238096|-425.64102564102564|-131.13553113553112|-320.8791208791209|-301.0989010989011]
866,2026-02-26 22:18:41,[-145.78754578754578|-400.0|-109.15750915750915|-287.9120879120879|-275.45787545787545]
867,2026-02-26 22:18:41,[-132.6007326007326|-393.4065934065934|-111.35531135531136|-298.16849816849816|-296.7032967032967]
868,2026-02-26 22:18:41,[-147.25274725274724|-406.5934065934066|-117.94871794871794|-293.040293040293|-273.2600732600733]
869,2026-02-26 22:18:41,[-117.94871794871794|-368.4981684981685|-88.64468864468864|-264.46886446886447|-254.94505494505495]
870,2026-02-26 22:18:41,[-103.2967032967033|-366.3003663003663|-93.77289377289377|-260.0732600732601|-254.21245421245422]
871,2026-02-26 22:18:41,[-93.77289377289377|-353.84615384615387|-79.12087912087912|-238.82783882783883|-229.3040293040293]
872,2026-02-26 22:18:41,[-71.06227106227107|-324.54212454212455|-50.54945054945055|-197.06959706959708|-191.2087912087912]
873,2026-02-26 22:18:41,[-19.78021978021978|-243.95604395604394|51.282051282051285|-123.80952380952381|-156.7765567765568]
874,2026-02-26 22:18:42,[-30.036630036630036|-311.35531135531136|-49.08424908424909|-199.26739926739927|-201.46520146520146]
875,2026-02-26 22:18:42,[-35.8974358974359|-305.4945054945055|-37.362637362637365|-93.77289377289377|241.02564102564102]
876,2026-02-26 22:18:42,[1499.6336996336997|1499.6336996336997|769.9633699633699|-657.1428571428571|-821.2454212454212]
877,2026-02-26 22:18:42,[-289.3772893772894|-314.2857142857143|6.593406593406593|-154.57875457875457|-157.50915750915752]
878,2026-02-26 22:18:42,[31.501831501831504|-224.9084249084249|49.81684981684982|-80.58608058608058|-76.92307692307692]
879,2026-02-26 22:18:42,[98.9010989010989|-160.43956043956044|120.14652014652015|-6.593406593406593|-9.523809523809524]
880,2026-02-26 22:18:42,[185.34798534798534|-52.747252747252745|249.8168498168498|144.32234432234432|154.57875457875457]
881,2026-02-26 22:18:42,[381.68498168498166|158.24175824175825|486.4468864468864|404.3956043956044|413.9194139194139]
882,2026-02-26 22:18:42,[635.8974358974359|347.98534798534797|607.3260073260074|419.7802197802198|304.76190476190476]
883,2026-02-26 22:18:42,[371.42857142857144|-46.88644688644688|99.63369963369964|-129.67032967032966|-248.35164835164835]
884,2026-02-26 22:18:42,[-111.35531135531136|-431.5018315018315|-178.75457875457874|-321.61172161172163|-361.17216117216117]
885,2026-02-26 22:18:42,[-173.62637362637363|-449.0842490842491|-178.02197802197801|-308.42490842490844|-336.2637362637363]
886,2026-02-26 22:18:42,[-135.53113553113553|-412.45421245421244|-147.25274725274724|-271.79487179487177|-310.6227106227106]
887,2026-02-26 22:18:42,[-114.28571428571429|-399.26739926739924|-153.1135531135531|-271.06227106227107|-320.1465201465202]
888,2026-02-26 22:18:42,[-126.73992673992674|-411.72161172161174|-153.1135531135531|-268.86446886446885|-323.0769230769231]
889,2026-02-26 22:18:42,[-126.73992673992674|-396.3369963369963|-145.78754578754578|-263.003663003663|-311.35531135531136]
