Packet_Number,Timestamp,Data
1,2026-01-31 19:26:31,[111446|0]
2,2026-01-31 19:26:31,[111510|0]
3,2026-01-31 19:26:31,[111583|0]
4,2026-01-31 19:26:31,[111632|0]
5,2026-01-31 19:26:31,[111470|0]
6,2026-01-31 19:26:31,[111145|0]
7,2026-01-31 19:26:31,[111003|0]
8,2026-01-31 19:26:31,[110993|0]
9,2026-01-31 19:26:31,[111053|0]
10,2026-01-31 19:26:31,[111098|0]
11,2026-01-31 19:26:32,[111153|0]
12,2026-01-31 19:26:32,[111101|0]
13,2026-01-31 19:26:32,[111105|0]
14,2026-01-31 19:26:32,[111108|0]
15,2026-01-31 19:26:32,[111173|0]
16,2026-01-31 19:26:32,[111230|0]
17,2026-01-31 19:26:32,[111277|0]
18,2026-01-31 19:26:32,[111309|0]
19,2026-01-31 19:26:32,[111386|0]
20,2026-01-31 19:26:32,[111436|0]
21,2026-01-31 19:26:32,[111482|0]
22,2026-01-31 19:26:32,[111520|0]
23,2026-01-31 19:26:32,[111558|0]
24,2026-01-31 19:26:32,[111610|0]
25,2026-01-31 19:26:32,[111681|0]
26,2026-01-31 19:26:32,[111677|0]
27,2026-01-31 19:26:32,[111448|0]
28,2026-01-31 19:26:32,[111233|0]
29,2026-01-31 19:26:32,[111184|0]
30,2026-01-31 19:26:32,[111219|0]
31,2026-01-31 19:26:32,[111285|0]
32,2026-01-31 19:26:32,[111333|0]
33,2026-01-31 19:26:32,[111363|0]
34,2026-01-31 19:26:32,[111349|0]
35,2026-01-31 19:26:32,[111335|0]
36,2026-01-31 19:26:33,[111361|0]
37,2026-01-31 19:26:33,[111434|0]
38,2026-01-31 19:26:33,[111480|0]
39,2026-01-31 19:26:33,[111534|0]
40,2026-01-31 19:26:33,[111605|0]
41,2026-01-31 19:26:33,[111643|0]
42,2026-01-31 19:26:33,[111670|0]
43,2026-01-31 19:26:33,[111724|0]
44,2026-01-31 19:26:33,[111780|0]
45,2026-01-31 19:26:33,[111815|0]
46,2026-01-31 19:26:33,[111866|0]
47,2026-01-31 19:26:33,[111918|0]
48,2026-01-31 19:26:33,[111969|0]
49,2026-01-31 19:26:33,[112023|0]
50,2026-01-31 19:26:33,[111927|0]
51,2026-01-31 19:26:33,[111697|0]
52,2026-01-31 19:26:33,[111612|0]
53,2026-01-31 19:26:33,[111636|0]
54,2026-01-31 19:26:33,[111702|0]
55,2026-01-31 19:26:33,[111755|0]
56,2026-01-31 19:26:33,[111789|0]
57,2026-01-31 19:26:33,[111795|0]
58,2026-01-31 19:26:33,[111796|0]
59,2026-01-31 19:26:33,[111787|0]
60,2026-01-31 19:26:33,[111819|0]
61,2026-01-31 19:26:33,[111878|0]
62,2026-01-31 19:26:34,[111932|0]
63,2026-01-31 19:26:34,[111970|0]
64,2026-01-31 19:26:34,[112008|0]
65,2026-01-31 19:26:34,[112008|0]
66,2026-01-31 19:26:34,[112019|0]
67,2026-01-31 19:26:34,[112067|0]
68,2026-01-31 19:26:34,[112092|0]
69,2026-01-31 19:26:34,[112161|0]
70,2026-01-31 19:26:34,[112187|0]
71,2026-01-31 19:26:34,[112233|0]
72,2026-01-31 19:26:34,[112266|0]
73,2026-01-31 19:26:34,[112318|0]
74,2026-01-31 19:26:34,[112367|0]
75,2026-01-31 19:26:34,[112426|0]
76,2026-01-31 19:26:34,[112389|0]
77,2026-01-31 19:26:34,[112190|0]
78,2026-01-31 19:26:34,[112065|0]
79,2026-01-31 19:26:34,[112090|0]
80,2026-01-31 19:26:34,[112160|0]
81,2026-01-31 19:26:34,[112231|0]
82,2026-01-31 19:26:34,[112298|0]
83,2026-01-31 19:26:34,[112290|0]
84,2026-01-31 19:26:34,[112262|0]
85,2026-01-31 19:26:34,[112260|0]
86,2026-01-31 19:26:35,[112277|0]
87,2026-01-31 19:26:35,[112328|0]
88,2026-01-31 19:26:35,[112375|0]
89,2026-01-31 19:26:35,[112420|0]
90,2026-01-31 19:26:35,[112441|0]
91,2026-01-31 19:26:35,[112483|0]
92,2026-01-31 19:26:35,[112516|0]
93,2026-01-31 19:26:35,[112541|0]
94,2026-01-31 19:26:35,[112569|0]
95,2026-01-31 19:26:35,[112605|0]
96,2026-01-31 19:26:35,[112606|0]
97,2026-01-31 19:26:35,[112679|0]
98,2026-01-31 19:26:35,[112663|0]
99,2026-01-31 19:26:35,[112582|0]
100,2026-01-31 19:26:35,[112551|0]
101,2026-01-31 19:26:35,[112549|0]
102,2026-01-31 19:26:35,[112549|0]
103,2026-01-31 19:26:35,[112609|0]
104,2026-01-31 19:26:35,[112646|0]
105,2026-01-31 19:26:35,[112654|0]
106,2026-01-31 19:26:35,[112641|0]
107,2026-01-31 19:26:35,[112639|0]
108,2026-01-31 19:26:35,[112637|0]
109,2026-01-31 19:26:35,[112687|0]
110,2026-01-31 19:26:35,[112692|0]
111,2026-01-31 19:26:36,[112729|0]
112,2026-01-31 19:26:36,[112754|0]
113,2026-01-31 19:26:36,[112760|0]
114,2026-01-31 19:26:36,[112770|0]
115,2026-01-31 19:26:36,[112795|0]
116,2026-01-31 19:26:36,[112670|0]
117,2026-01-31 19:26:36,[112510|0]
118,2026-01-31 19:26:36,[112460|0]
119,2026-01-31 19:26:36,[112479|0]
120,2026-01-31 19:26:36,[112522|0]
121,2026-01-31 19:26:36,[112615|0]
122,2026-01-31 19:26:36,[112624|0]
123,2026-01-31 19:26:36,[112564|0]
124,2026-01-31 19:26:36,[112522|0]
125,2026-01-31 19:26:36,[112553|0]
126,2026-01-31 19:26:36,[112555|0]
127,2026-01-31 19:26:36,[112607|0]
128,2026-01-31 19:26:36,[112634|0]
129,2026-01-31 19:26:36,[112651|0]
130,2026-01-31 19:26:36,[112694|0]
131,2026-01-31 19:26:36,[112724|0]
132,2026-01-31 19:26:36,[112725|0]
133,2026-01-31 19:26:36,[112768|0]
134,2026-01-31 19:26:36,[112799|0]
135,2026-01-31 19:26:36,[112837|0]
136,2026-01-31 19:26:36,[112773|0]
137,2026-01-31 19:26:37,[112476|0]
138,2026-01-31 19:26:37,[112265|0]
139,2026-01-31 19:26:37,[112229|0]
140,2026-01-31 19:26:37,[112266|0]
141,2026-01-31 19:26:37,[112278|0]
142,2026-01-31 19:26:37,[112309|0]
143,2026-01-31 19:26:37,[112299|0]
144,2026-01-31 19:26:37,[112253|0]
145,2026-01-31 19:26:37,[112252|0]
146,2026-01-31 19:26:37,[112265|0]
147,2026-01-31 19:26:37,[112295|0]
148,2026-01-31 19:26:37,[112329|0]
149,2026-01-31 19:26:37,[112370|0]
150,2026-01-31 19:26:37,[112393|0]
151,2026-01-31 19:26:37,[112448|0]
152,2026-01-31 19:26:37,[112485|0]
153,2026-01-31 19:26:37,[112521|0]
154,2026-01-31 19:26:37,[112557|0]
155,2026-01-31 19:26:37,[112594|0]
156,2026-01-31 19:26:37,[112641|0]
157,2026-01-31 19:26:37,[112630|0]
158,2026-01-31 19:26:37,[112446|0]
159,2026-01-31 19:26:37,[112322|0]
160,2026-01-31 19:26:37,[112338|0]
161,2026-01-31 19:26:38,[112395|0]
162,2026-01-31 19:26:38,[112451|0]
163,2026-01-31 19:26:38,[112504|0]
164,2026-01-31 19:26:38,[112537|0]
165,2026-01-31 19:26:38,[112540|0]
166,2026-01-31 19:26:38,[112541|0]
167,2026-01-31 19:26:38,[112565|0]
168,2026-01-31 19:26:38,[112630|0]
169,2026-01-31 19:26:38,[112689|0]
170,2026-01-31 19:26:38,[112759|0]
171,2026-01-31 19:26:38,[112804|0]
172,2026-01-31 19:26:38,[112854|0]
173,2026-01-31 19:26:38,[112881|0]
174,2026-01-31 19:26:38,[112932|0]
175,2026-01-31 19:26:38,[112981|0]
176,2026-01-31 19:26:38,[113031|0]
177,2026-01-31 19:26:38,[113088|0]
178,2026-01-31 19:26:38,[113144|0]
179,2026-01-31 19:26:38,[113144|0]
180,2026-01-31 19:26:38,[113089|0]
181,2026-01-31 19:26:38,[112945|0]
182,2026-01-31 19:26:38,[112926|0]
183,2026-01-31 19:26:38,[113009|0]
184,2026-01-31 19:26:38,[113091|0]
185,2026-01-31 19:26:38,[113158|0]
186,2026-01-31 19:26:39,[113203|0]
187,2026-01-31 19:26:39,[113221|0]
188,2026-01-31 19:26:39,[113227|0]
189,2026-01-31 19:26:39,[113236|0]
190,2026-01-31 19:26:39,[113284|0]
191,2026-01-31 19:26:39,[113341|0]
192,2026-01-31 19:26:39,[113388|0]
193,2026-01-31 19:26:39,[113433|0]
194,2026-01-31 19:26:39,[113474|0]
195,2026-01-31 19:26:39,[113501|0]
196,2026-01-31 19:26:39,[113539|0]
197,2026-01-31 19:26:39,[113577|0]
198,2026-01-31 19:26:39,[113574|0]
199,2026-01-31 19:26:39,[113553|0]
200,2026-01-31 19:26:39,[113448|0]
201,2026-01-31 19:26:39,[113454|0]
202,2026-01-31 19:26:39,[113510|0]
203,2026-01-31 19:26:39,[113587|0]
204,2026-01-31 19:26:39,[113636|0]
205,2026-01-31 19:26:39,[113706|0]
206,2026-01-31 19:26:39,[113694|0]
207,2026-01-31 19:26:39,[113676|0]
208,2026-01-31 19:26:39,[113694|0]
209,2026-01-31 19:26:39,[113729|0]
210,2026-01-31 19:26:39,[113747|0]
211,2026-01-31 19:26:39,[113806|0]
212,2026-01-31 19:26:40,[113854|0]
213,2026-01-31 19:26:40,[113879|0]
214,2026-01-31 19:26:40,[113902|0]
215,2026-01-31 19:26:40,[113927|0]
216,2026-01-31 19:26:40,[113937|0]
217,2026-01-31 19:26:40,[113903|0]
218,2026-01-31 19:26:40,[113784|0]
219,2026-01-31 19:26:40,[113767|0]
220,2026-01-31 19:26:40,[113832|0]
221,2026-01-31 19:26:40,[113904|0]
222,2026-01-31 19:26:40,[113935|0]
223,2026-01-31 19:26:40,[113988|0]
224,2026-01-31 19:26:40,[113988|0]
225,2026-01-31 19:26:40,[113978|0]
226,2026-01-31 19:26:40,[113987|0]
227,2026-01-31 19:26:40,[114022|0]
228,2026-01-31 19:26:40,[114039|0]
229,2026-01-31 19:26:40,[114088|0]
230,2026-01-31 19:26:40,[114108|0]
231,2026-01-31 19:26:40,[114142|0]
232,2026-01-31 19:26:40,[114152|0]
233,2026-01-31 19:26:40,[114167|0]
234,2026-01-31 19:26:40,[114174|0]
235,2026-01-31 19:26:40,[114211|0]
236,2026-01-31 19:26:41,[114231|0]
237,2026-01-31 19:26:41,[114223|0]
238,2026-01-31 19:26:41,[114043|0]
239,2026-01-31 19:26:41,[113949|0]
240,2026-01-31 19:26:41,[113982|0]
241,2026-01-31 19:26:41,[114079|0]
242,2026-01-31 19:26:41,[114115|0]
243,2026-01-31 19:26:41,[114155|0]
244,2026-01-31 19:26:41,[114160|0]
245,2026-01-31 19:26:41,[114150|0]
246,2026-01-31 19:26:41,[114122|0]
247,2026-01-31 19:26:41,[114171|0]
248,2026-01-31 19:26:41,[114207|0]
249,2026-01-31 19:26:41,[114246|0]
250,2026-01-31 19:26:41,[114276|0]
251,2026-01-31 19:26:41,[114284|0]
252,2026-01-31 19:26:41,[114289|0]
253,2026-01-31 19:26:41,[114323|0]
254,2026-01-31 19:26:41,[114336|0]
255,2026-01-31 19:26:41,[114353|0]
256,2026-01-31 19:26:41,[114370|0]
257,2026-01-31 19:26:41,[114384|0]
258,2026-01-31 19:26:41,[114393|0]
259,2026-01-31 19:26:41,[114431|0]
260,2026-01-31 19:26:41,[114464|0]
261,2026-01-31 19:26:42,[114403|0]
262,2026-01-31 19:26:42,[114206|0]
263,2026-01-31 19:26:42,[114123|0]
264,2026-01-31 19:26:42,[114168|0]
265,2026-01-31 19:26:42,[114248|0]
266,2026-01-31 19:26:42,[114261|0]
267,2026-01-31 19:26:42,[114266|0]
268,2026-01-31 19:26:42,[114271|0]
269,2026-01-31 19:26:42,[114272|0]
270,2026-01-31 19:26:42,[114264|0]
271,2026-01-31 19:26:42,[114287|0]
272,2026-01-31 19:26:42,[114310|0]
273,2026-01-31 19:26:42,[114339|0]
274,2026-01-31 19:26:42,[114370|0]
275,2026-01-31 19:26:42,[114374|0]
276,2026-01-31 19:26:42,[114391|0]
277,2026-01-31 19:26:42,[114408|0]
278,2026-01-31 19:26:42,[114418|0]
279,2026-01-31 19:26:42,[114440|0]
280,2026-01-31 19:26:42,[114455|0]
281,2026-01-31 19:26:42,[114456|0]
282,2026-01-31 19:26:42,[114479|0]
283,2026-01-31 19:26:42,[114509|0]
284,2026-01-31 19:26:42,[114532|0]
285,2026-01-31 19:26:42,[114546|0]
286,2026-01-31 19:26:43,[114406|0]
287,2026-01-31 19:26:43,[114222|0]
288,2026-01-31 19:26:43,[114200|0]
289,2026-01-31 19:26:43,[114250|0]
290,2026-01-31 19:26:43,[114302|0]
291,2026-01-31 19:26:43,[114310|0]
292,2026-01-31 19:26:43,[114307|0]
293,2026-01-31 19:26:43,[114283|0]
294,2026-01-31 19:26:43,[114283|0]
295,2026-01-31 19:26:43,[114261|0]
296,2026-01-31 19:26:43,[114266|0]
297,2026-01-31 19:26:43,[114300|0]
298,2026-01-31 19:26:43,[114322|0]
299,2026-01-31 19:26:43,[114334|0]
300,2026-01-31 19:26:43,[114334|0]
301,2026-01-31 19:26:43,[114361|0]
302,2026-01-31 19:26:43,[114359|0]
303,2026-01-31 19:26:43,[114380|0]
304,2026-01-31 19:26:43,[114380|0]
305,2026-01-31 19:26:43,[114405|0]
306,2026-01-31 19:26:43,[114418|0]
307,2026-01-31 19:26:43,[114431|0]
308,2026-01-31 19:26:43,[114459|0]
309,2026-01-31 19:26:43,[114476|0]
310,2026-01-31 19:26:43,[114499|0]
311,2026-01-31 19:26:44,[114495|0]
312,2026-01-31 19:26:44,[114325|0]
313,2026-01-31 19:26:44,[114159|0]
314,2026-01-31 19:26:44,[114124|0]
315,2026-01-31 19:26:44,[114173|0]
316,2026-01-31 19:26:44,[114206|0]
317,2026-01-31 19:26:44,[114215|0]
318,2026-01-31 19:26:44,[114195|0]
319,2026-01-31 19:26:44,[114194|0]
320,2026-01-31 19:26:44,[114159|0]
321,2026-01-31 19:26:44,[114164|0]
322,2026-01-31 19:26:44,[114179|0]
323,2026-01-31 19:26:44,[114189|0]
324,2026-01-31 19:26:44,[114196|0]
325,2026-01-31 19:26:44,[114225|0]
326,2026-01-31 19:26:44,[114250|0]
327,2026-01-31 19:26:44,[114267|0]
328,2026-01-31 19:26:44,[114285|0]
329,2026-01-31 19:26:44,[114285|0]
330,2026-01-31 19:26:44,[114278|0]
331,2026-01-31 19:26:44,[114309|0]
332,2026-01-31 19:26:44,[114329|0]
333,2026-01-31 19:26:44,[114348|0]
334,2026-01-31 19:26:44,[114366|0]
335,2026-01-31 19:26:44,[114384|0]
336,2026-01-31 19:26:45,[114228|0]
337,2026-01-31 19:26:45,[114070|0]
338,2026-01-31 19:26:45,[114007|0]
339,2026-01-31 19:26:45,[114034|0]
340,2026-01-31 19:26:45,[114072|0]
341,2026-01-31 19:26:45,[114106|0]
342,2026-01-31 19:26:45,[114094|0]
343,2026-01-31 19:26:45,[114079|0]
344,2026-01-31 19:26:45,[114048|0]
345,2026-01-31 19:26:45,[114028|0]
346,2026-01-31 19:26:45,[114046|0]
347,2026-01-31 19:26:45,[114068|0]
348,2026-01-31 19:26:45,[114062|0]
349,2026-01-31 19:26:45,[114105|0]
350,2026-01-31 19:26:45,[114122|0]
351,2026-01-31 19:26:45,[114134|0]
352,2026-01-31 19:26:45,[114140|0]
353,2026-01-31 19:26:45,[114146|0]
354,2026-01-31 19:26:45,[114154|0]
355,2026-01-31 19:26:45,[114188|0]
356,2026-01-31 19:26:45,[114209|0]
357,2026-01-31 19:26:45,[114194|0]
358,2026-01-31 19:26:45,[114043|0]
359,2026-01-31 19:26:45,[113887|0]
360,2026-01-31 19:26:45,[113826|0]
361,2026-01-31 19:26:45,[113868|0]
362,2026-01-31 19:26:46,[113916|0]
363,2026-01-31 19:26:46,[113942|0]
364,2026-01-31 19:26:46,[113940|0]
365,2026-01-31 19:26:46,[113876|0]
366,2026-01-31 19:26:46,[113811|0]
367,2026-01-31 19:26:46,[113818|0]
368,2026-01-31 19:26:46,[113831|0]
369,2026-01-31 19:26:46,[113858|0]
370,2026-01-31 19:26:46,[113880|0]
371,2026-01-31 19:26:46,[113910|0]
372,2026-01-31 19:26:46,[113927|0]
373,2026-01-31 19:26:46,[113983|0]
374,2026-01-31 19:26:46,[113967|0]
375,2026-01-31 19:26:46,[113915|0]
376,2026-01-31 19:26:46,[113954|0]
377,2026-01-31 19:26:46,[113947|0]
378,2026-01-31 19:26:46,[113795|0]
379,2026-01-31 19:26:46,[113655|0]
380,2026-01-31 19:26:46,[113603|0]
381,2026-01-31 19:26:46,[113609|0]
382,2026-01-31 19:26:46,[113643|0]
383,2026-01-31 19:26:46,[113682|0]
384,2026-01-31 19:26:46,[113680|0]
385,2026-01-31 19:26:46,[113649|0]
386,2026-01-31 19:26:47,[113605|0]
387,2026-01-31 19:26:47,[113587|0]
388,2026-01-31 19:26:47,[113609|0]
389,2026-01-31 19:26:47,[113627|0]
390,2026-01-31 19:26:47,[113657|0]
391,2026-01-31 19:26:47,[113679|0]
392,2026-01-31 19:26:47,[113694|0]
393,2026-01-31 19:26:47,[113700|0]
394,2026-01-31 19:26:47,[113710|0]
395,2026-01-31 19:26:47,[113705|0]
396,2026-01-31 19:26:47,[113742|0]
397,2026-01-31 19:26:47,[113777|0]
398,2026-01-31 19:26:47,[113696|0]
399,2026-01-31 19:26:47,[113440|0]
400,2026-01-31 19:26:47,[113254|0]
401,2026-01-31 19:26:47,[113197|0]
402,2026-01-31 19:26:47,[113205|0]
403,2026-01-31 19:26:47,[113221|0]
404,2026-01-31 19:26:47,[113219|0]
405,2026-01-31 19:26:47,[113204|0]
406,2026-01-31 19:26:47,[113154|0]
407,2026-01-31 19:26:47,[113154|0]
408,2026-01-31 19:26:47,[113101|0]
409,2026-01-31 19:26:47,[113099|0]
410,2026-01-31 19:26:47,[113136|0]
411,2026-01-31 19:26:48,[113166|0]
412,2026-01-31 19:26:48,[113192|0]
413,2026-01-31 19:26:48,[113212|0]
414,2026-01-31 19:26:48,[113208|0]
415,2026-01-31 19:26:48,[113240|0]
416,2026-01-31 19:26:48,[113254|0]
417,2026-01-31 19:26:48,[113277|0]
418,2026-01-31 19:26:48,[113307|0]
419,2026-01-31 19:26:48,[113333|0]
420,2026-01-31 19:26:48,[113333|0]
421,2026-01-31 19:26:48,[113392|0]
422,2026-01-31 19:26:48,[113423|0]
423,2026-01-31 19:26:48,[113285|0]
424,2026-01-31 19:26:48,[113013|0]
425,2026-01-31 19:26:48,[112844|0]
426,2026-01-31 19:26:48,[112794|0]
427,2026-01-31 19:26:48,[112827|0]
428,2026-01-31 19:26:48,[112816|0]
429,2026-01-31 19:26:48,[112836|0]
430,2026-01-31 19:26:48,[112821|0]
431,2026-01-31 19:26:48,[112785|0]
432,2026-01-31 19:26:48,[112730|0]
433,2026-01-31 19:26:48,[112758|0]
434,2026-01-31 19:26:48,[112792|0]
435,2026-01-31 19:26:48,[112823|0]
436,2026-01-31 19:26:48,[112851|0]
437,2026-01-31 19:26:49,[112869|0]
438,2026-01-31 19:26:49,[112881|0]
439,2026-01-31 19:26:49,[112915|0]
440,2026-01-31 19:26:49,[112930|0]
441,2026-01-31 19:26:49,[112955|0]
442,2026-01-31 19:26:49,[112980|0]
443,2026-01-31 19:26:49,[113018|0]
444,2026-01-31 19:26:49,[113035|0]
445,2026-01-31 19:26:49,[113075|0]
446,2026-01-31 19:26:49,[113117|0]
447,2026-01-31 19:26:49,[113164|0]
448,2026-01-31 19:26:49,[113115|0]
449,2026-01-31 19:26:49,[112865|0]
450,2026-01-31 19:26:49,[112591|0]
451,2026-01-31 19:26:49,[112540|0]
452,2026-01-31 19:26:49,[112557|0]
453,2026-01-31 19:26:49,[112588|0]
454,2026-01-31 19:26:49,[112624|0]
455,2026-01-31 19:26:49,[112624|0]
456,2026-01-31 19:26:49,[112560|0]
457,2026-01-31 19:26:49,[112567|0]
458,2026-01-31 19:26:49,[112574|0]
459,2026-01-31 19:26:49,[112626|0]
460,2026-01-31 19:26:49,[112784|0]
461,2026-01-31 19:26:50,[113246|0]
462,2026-01-31 19:26:50,[113844|0]
463,2026-01-31 19:26:50,[114092|0]
464,2026-01-31 19:26:50,[114024|0]
465,2026-01-31 19:26:50,[114081|0]
466,2026-01-31 19:26:50,[114434|0]
467,2026-01-31 19:26:50,[115191|0]
468,2026-01-31 19:26:50,[115913|0]
469,2026-01-31 19:26:50,[116170|0]
470,2026-01-31 19:26:50,[116360|0]
471,2026-01-31 19:26:50,[116549|0]
472,2026-01-31 19:26:50,[116711|0]
473,2026-01-31 19:26:50,[116662|0]
474,2026-01-31 19:26:50,[116328|0]
475,2026-01-31 19:26:50,[115269|0]
476,2026-01-31 19:26:50,[115128|0]
477,2026-01-31 19:26:50,[114864|0]
478,2026-01-31 19:26:50,[114165|0]
479,2026-01-31 19:26:50,[113680|0]
480,2026-01-31 19:26:50,[113640|0]
481,2026-01-31 19:26:50,[114352|0]
482,2026-01-31 19:26:50,[114878|0]
483,2026-01-31 19:26:50,[115801|0]
484,2026-01-31 19:26:50,[116455|0]
485,2026-01-31 19:26:50,[116820|0]
486,2026-01-31 19:26:51,[116742|0]
487,2026-01-31 19:26:51,[116744|0]
488,2026-01-31 19:26:51,[116654|0]
489,2026-01-31 19:26:51,[116364|0]
490,2026-01-31 19:26:51,[115829|0]
491,2026-01-31 19:26:51,[115520|0]
492,2026-01-31 19:26:51,[115418|0]
493,2026-01-31 19:26:51,[115601|0]
494,2026-01-31 19:26:51,[115923|0]
495,2026-01-31 19:26:51,[116105|0]
496,2026-01-31 19:26:51,[116176|0]
497,2026-01-31 19:26:51,[116214|0]
498,2026-01-31 19:26:51,[116254|0]
499,2026-01-31 19:26:51,[115761|0]
500,2026-01-31 19:26:51,[114861|0]
501,2026-01-31 19:26:51,[114661|0]
502,2026-01-31 19:26:51,[114776|0]
503,2026-01-31 19:26:51,[114939|0]
504,2026-01-31 19:26:51,[115056|0]
505,2026-01-31 19:26:51,[115112|0]
506,2026-01-31 19:26:51,[114944|0]
507,2026-01-31 19:26:51,[114788|0]
508,2026-01-31 19:26:51,[114711|0]
509,2026-01-31 19:26:51,[114730|0]
510,2026-01-31 19:26:51,[114826|0]
511,2026-01-31 19:26:51,[114893|0]
512,2026-01-31 19:26:52,[114917|0]
513,2026-01-31 19:26:52,[114930|0]
514,2026-01-31 19:26:52,[114965|0]
515,2026-01-31 19:26:52,[114980|0]
516,2026-01-31 19:26:52,[114956|0]
517,2026-01-31 19:26:52,[114943|0]
518,2026-01-31 19:26:52,[115008|0]
519,2026-01-31 19:26:52,[115107|0]
520,2026-01-31 19:26:52,[115107|0]
521,2026-01-31 19:26:52,[115253|0]
522,2026-01-31 19:26:52,[115344|0]
523,2026-01-31 19:26:52,[115263|0]
524,2026-01-31 19:26:52,[114659|0]
525,2026-01-31 19:26:52,[114341|0]
526,2026-01-31 19:26:52,[114305|0]
527,2026-01-31 19:26:52,[114390|0]
528,2026-01-31 19:26:52,[114478|0]
529,2026-01-31 19:26:52,[114556|0]
530,2026-01-31 19:26:52,[114513|0]
531,2026-01-31 19:26:52,[114411|0]
532,2026-01-31 19:26:52,[114364|0]
533,2026-01-31 19:26:52,[114374|0]
534,2026-01-31 19:26:52,[114451|0]
535,2026-01-31 19:26:52,[114603|0]
536,2026-01-31 19:26:53,[114701|0]
537,2026-01-31 19:26:53,[114744|0]
538,2026-01-31 19:26:53,[114781|0]
539,2026-01-31 19:26:53,[114805|0]
540,2026-01-31 19:26:53,[114758|0]
541,2026-01-31 19:26:53,[114779|0]
