Packet_Number,Timestamp,Data
1,2026-01-31 19:26:31,[-30.76923076923077|-17.582417582417584|-15.384615384615385|-8.058608058608058|8.058608058608058]
2,2026-01-31 19:26:31,[17.582417582417584|31.501831501831504|41.75824175824176|54.94505494505494|80.58608058608058]
3,2026-01-31 19:26:31,[104.76190476190476|134.7985347985348|156.04395604395606|179.48717948717947|197.06959706959708]
4,2026-01-31 19:26:31,[204.3956043956044|214.65201465201466|202.93040293040292|173.62637362637363|147.25274725274724]
5,2026-01-31 19:26:31,[99.63369963369964|38.095238095238095|-21.245421245421245|-68.13186813186813|-113.55311355311355]
6,2026-01-31 19:26:31,[-150.1831501831502|-170.6959706959707|-193.4065934065934|-202.1978021978022|-202.93040293040292]
7,2026-01-31 19:26:31,[-205.86080586080587|-195.6043956043956|-194.13919413919413|-191.2087912087912|-182.41758241758242]
8,2026-01-31 19:26:31,[-182.41758241758242|-173.62637362637363|-176.55677655677655|-158.97435897435898|-161.9047619047619]
9,2026-01-31 19:26:31,[-167.76556776556777|-166.3003663003663|-178.02197802197801|-179.48717948717947|-176.55677655677655]
10,2026-01-31 19:26:31,[-178.02197802197801|-174.35897435897436|-188.2783882783883|-188.2783882783883|-191.2087912087912]
11,2026-01-31 19:26:32,[-188.2783882783883|-180.21978021978023|-188.2783882783883|-172.8937728937729|-182.41758241758242]
12,2026-01-31 19:26:32,[-179.48717948717947|-178.02197802197801|-182.41758241758242|-178.02197802197801|-172.16117216117217]
13,2026-01-31 19:26:32,[-176.55677655677655|-168.4981684981685|-164.83516483516485|-167.03296703296704|-167.76556776556777]
14,2026-01-31 19:26:32,[-166.3003663003663|-157.50915750915752|-160.43956043956044|-140.65934065934067|-144.32234432234432]
15,2026-01-31 19:26:32,[-146.5201465201465|-147.25274725274724|-142.85714285714286|-132.6007326007326|-134.06593406593407]
16,2026-01-31 19:26:32,[-145.05494505494505|-134.7985347985348|-144.32234432234432|-148.71794871794873|-129.67032967032966]
17,2026-01-31 19:26:32,[-109.15750915750915|-94.50549450549451|-101.83150183150182|-85.71428571428571|-119.41391941391942]
18,2026-01-31 19:26:32,[-132.6007326007326|-134.7985347985348|-123.80952380952381|-120.14652014652015|-120.87912087912088]
19,2026-01-31 19:26:32,[-122.34432234432235|-131.13553113553112|-142.12454212454213|-43.223443223443226|248.35164835164835]
20,2026-01-31 19:26:32,[617.5824175824176|512.8205128205128|21.245421245421245|-412.45421245421244|-319.4139194139194]
21,2026-01-31 19:26:32,[-121.6117216117216|-95.23809523809524|-93.77289377289377|-74.72527472527473|-70.32967032967034]
22,2026-01-31 19:26:32,[-71.06227106227107|-65.2014652014652|-63.73626373626374|-54.94505494505494|-49.08424908424909]
23,2026-01-31 19:26:32,[-43.223443223443226|-31.501831501831504|-25.641025641025642|-5.86080586080586|5.128205128205129]
24,2026-01-31 19:26:32,[16.117216117216117|37.362637362637365|54.94505494505494|77.65567765567765|106.22710622710623]
25,2026-01-31 19:26:32,[122.34432234432235|154.57875457875457|170.6959706959707|186.8131868131868|195.6043956043956]
26,2026-01-31 19:26:32,[186.8131868131868|183.88278388278388|147.25274725274724|113.55311355311355|54.21245421245421]
27,2026-01-31 19:26:32,[-13.91941391941392|-65.2014652014652|-110.62271062271063|-147.98534798534797|-178.75457875457874]
28,2026-01-31 19:26:32,[-200.0|-207.32600732600733|-215.3846153846154|-215.3846153846154|-213.1868131868132]
29,2026-01-31 19:26:32,[-213.1868131868132|-200.0|-197.06959706959708|-179.48717948717947|-179.48717948717947]
30,2026-01-31 19:26:32,[-180.95238095238096|-178.75457875457874|-179.48717948717947|-172.16117216117217|-173.62637362637363]
31,2026-01-31 19:26:32,[-178.02197802197801|-172.8937728937729|-176.55677655677655|-174.35897435897436|-167.76556776556777]
32,2026-01-31 19:26:32,[-172.8937728937729|-178.75457875457874|-180.95238095238096|-176.55677655677655|-178.02197802197801]
33,2026-01-31 19:26:32,[-181.6849816849817|-178.75457875457874|-175.0915750915751|-177.28937728937728|-174.35897435897436]
34,2026-01-31 19:26:32,[-172.8937728937729|-167.76556776556777|-164.83516483516485|-166.3003663003663|-165.56776556776558]
35,2026-01-31 19:26:32,[-166.3003663003663|-156.04395604395606|-157.50915750915752|-156.04395604395606|-145.78754578754578]
36,2026-01-31 19:26:33,[-153.84615384615384|-146.5201465201465|-134.7985347985348|-135.53113553113553|-135.53113553113553]
37,2026-01-31 19:26:33,[-132.6007326007326|-134.06593406593407|-132.6007326007326|-134.7985347985348|-134.06593406593407]
38,2026-01-31 19:26:33,[-131.13553113553112|-123.07692307692308|-126.73992673992674|-140.65934065934067|-118.68131868131869]
39,2026-01-31 19:26:33,[-126.00732600732601|-123.07692307692308|-122.34432234432235|-113.55311355311355|-112.08791208791209]
40,2026-01-31 19:26:33,[-119.41391941391942|-114.28571428571429|-123.80952380952381|-112.82051282051282|-87.91208791208791]
41,2026-01-31 19:26:33,[-76.92307692307692|-76.92307692307692|-85.71428571428571|-119.41391941391942|-109.15750915750915]
42,2026-01-31 19:26:33,[-112.82051282051282|-112.82051282051282|-117.94871794871794|-115.75091575091575|-110.62271062271063]
43,2026-01-31 19:26:33,[-117.94871794871794|-132.6007326007326|-67.3992673992674|195.6043956043956|596.3369963369963]
44,2026-01-31 19:26:33,[594.8717948717949|113.55311355311355|-361.17216117216117|-336.2637362637363|-115.01831501831502]
45,2026-01-31 19:26:33,[-82.78388278388279|-75.45787545787546|-71.06227106227107|-66.66666666666667|-60.8058608058608]
46,2026-01-31 19:26:33,[-61.53846153846154|-52.014652014652015|-47.61904761904762|-35.8974358974359|-32.967032967032964]
47,2026-01-31 19:26:33,[-28.571428571428573|-11.72161172161172|3.663003663003663|-7.326007326007326|30.036630036630036]
48,2026-01-31 19:26:33,[39.56043956043956|55.67765567765568|79.85347985347985|111.35531135531136|135.53113553113553]
49,2026-01-31 19:26:33,[161.17216117216117|191.2087912087912|210.25641025641025|218.3150183150183|219.04761904761904]
50,2026-01-31 19:26:33,[208.7912087912088|183.88278388278388|145.05494505494505|76.19047619047619|39.56043956043956]
51,2026-01-31 19:26:33,[-28.571428571428573|-79.12087912087912|-122.34432234432235|-158.24175824175825|-180.95238095238096]
52,2026-01-31 19:26:33,[-197.06959706959708|-205.86080586080587|-211.7216117216117|-208.7912087912088|-210.25641025641025]
53,2026-01-31 19:26:33,[-208.05860805860806|-204.3956043956044|-202.93040293040292|-234.43223443223442|-195.6043956043956]
54,2026-01-31 19:26:33,[-192.67399267399267|-183.88278388278388|-183.15018315018315|-179.48717948717947|-176.55677655677655]
55,2026-01-31 19:26:33,[-173.62637362637363|-179.48717948717947|-181.6849816849817|-180.21978021978023|-182.41758241758242]
56,2026-01-31 19:26:33,[-191.2087912087912|-188.2783882783883|-190.47619047619048|-219.04761904761904|-178.02197802197801]
57,2026-01-31 19:26:33,[-180.95238095238096|-183.15018315018315|-188.2783882783883|-183.88278388278388|-178.02197802197801]
58,2026-01-31 19:26:33,[-169.23076923076923|-161.9047619047619|-164.10256410256412|-161.17216117216117|-164.83516483516485]
59,2026-01-31 19:26:33,[-164.10256410256412|-154.57875457875457|-157.50915750915752|-191.2087912087912|-148.71794871794873]
60,2026-01-31 19:26:33,[-154.57875457875457|-142.85714285714286|-141.3919413919414|-134.7985347985348|-135.53113553113553]
61,2026-01-31 19:26:33,[-141.3919413919414|-135.53113553113553|-134.06593406593407|-135.53113553113553|-134.7985347985348]
62,2026-01-31 19:26:34,[-131.13553113553112|-123.07692307692308|-129.67032967032966|-159.7069597069597|-112.08791208791209]
63,2026-01-31 19:26:34,[-110.62271062271063|-109.15750915750915|-105.49450549450549|-100.36630036630036|-101.83150183150182]
64,2026-01-31 19:26:34,[-96.7032967032967|-87.17948717948718|-85.71428571428571|-88.64468864468864|-95.23809523809524]
65,2026-01-31 19:26:34,[-84.24908424908425|-87.91208791208791|-94.50549450549451|-134.06593406593407|-87.17948717948718]
66,2026-01-31 19:26:34,[-65.2014652014652|-43.223443223443226|-50.54945054945055|-62.27106227106227|-79.85347985347985]
67,2026-01-31 19:26:34,[-97.43589743589743|-87.17948717948718|-85.71428571428571|-83.51648351648352|-78.3882783882784]
68,2026-01-31 19:26:34,[-73.99267399267399|-71.06227106227107|-85.71428571428571|-112.08791208791209|69.59706959706959]
69,2026-01-31 19:26:34,[397.8021978021978|626.3736263736264|367.032967032967|-87.91208791208791|-351.64835164835165]
70,2026-01-31 19:26:34,[-181.6849816849817|-53.47985347985348|-43.223443223443226|-47.61904761904762|-30.036630036630036]
71,2026-01-31 19:26:34,[-28.571428571428573|-21.245421245421245|-31.501831501831504|-63.00366300366301|-19.78021978021978]
72,2026-01-31 19:26:34,[-15.384615384615385|-8.791208791208792|-2.93040293040293|15.384615384615385|25.641025641025642]
73,2026-01-31 19:26:34,[28.571428571428573|44.688644688644686|43.223443223443226|54.94505494505494|87.17948717948718]
74,2026-01-31 19:26:34,[108.42490842490842|120.87912087912088|132.6007326007326|122.34432234432235|162.63736263736263]
75,2026-01-31 19:26:34,[166.3003663003663|154.57875457875457|128.2051282051282|102.56410256410257|68.86446886446886]
76,2026-01-31 19:26:34,[32.967032967032964|-25.641025641025642|-55.67765567765568|-80.58608058608058|-120.87912087912088]
77,2026-01-31 19:26:34,[-156.7765567765568|-153.1135531135531|-167.03296703296704|-205.12820512820514|-161.9047619047619]
78,2026-01-31 19:26:34,[-156.04395604395606|-180.95238095238096|-158.97435897435898|-152.38095238095238|-155.3113553113553]
79,2026-01-31 19:26:34,[-160.43956043956044|-135.53113553113553|-144.32234432234432|-148.71794871794873|-129.67032967032966]
80,2026-01-31 19:26:34,[-134.06593406593407|-132.6007326007326|-126.73992673992674|-188.2783882783883|-134.7985347985348]
81,2026-01-31 19:26:34,[-131.13553113553112|-153.1135531135531|-122.34432234432235|-132.6007326007326|-133.33333333333334]
82,2026-01-31 19:26:34,[-119.41391941391942|-119.41391941391942|-131.13553113553112|-118.68131868131869|-105.49450549450549]
83,2026-01-31 19:26:34,[-122.34432234432235|-121.6117216117216|-115.01831501831502|-130.4029304029304|-109.15750915750915]
84,2026-01-31 19:26:34,[-107.6923076923077|-120.87912087912088|-120.87912087912088|-113.55311355311355|-100.36630036630036]
85,2026-01-31 19:26:34,[-106.22710622710623|-101.83150183150182|-112.08791208791209|-97.43589743589743|-95.97069597069597]
86,2026-01-31 19:26:35,[-101.83150183150182|-103.2967032967033|-88.64468864468864|-127.47252747252747|-76.19047619047619]
87,2026-01-31 19:26:35,[-102.56410256410257|-89.37728937728937|-85.71428571428571|-66.66666666666667|-76.19047619047619]
88,2026-01-31 19:26:35,[-66.66666666666667|-76.92307692307692|-94.50549450549451|-100.36630036630036|-89.37728937728937]
89,2026-01-31 19:26:35,[-84.24908424908425|-95.97069597069597|-88.64468864468864|-133.33333333333334|-79.12087912087912]
90,2026-01-31 19:26:35,[-62.27106227106227|28.571428571428573|232.96703296703296|298.16849816849816|92.3076923076923]
91,2026-01-31 19:26:35,[-134.7985347985348|-308.42490842490844|-205.86080586080587|-109.15750915750915|-106.22710622710623]
92,2026-01-31 19:26:35,[-62.27106227106227|-56.41025641025641|-75.45787545787546|-83.51648351648352|-41.02564102564103]
93,2026-01-31 19:26:35,[-43.223443223443226|-36.63003663003663|-32.967032967032964|-37.362637362637365|-16.84981684981685]
94,2026-01-31 19:26:35,[-28.571428571428573|-5.128205128205129|-5.86080586080586|-13.91941391941392|22.71062271062271]
95,2026-01-31 19:26:35,[37.362637362637365|52.014652014652015|64.46886446886447|56.41025641025641|109.15750915750915]
96,2026-01-31 19:26:35,[81.31868131868131|90.84249084249085|100.36630036630036|73.99267399267399|50.54945054945055]
97,2026-01-31 19:26:35,[27.106227106227106|-6.593406593406593|-47.61904761904762|-85.71428571428571|-95.97069597069597]
98,2026-01-31 19:26:35,[-136.26373626373626|-135.53113553113553|-158.97435897435898|-206.5934065934066|-149.45054945054946]
99,2026-01-31 19:26:35,[-160.43956043956044|-158.24175824175825|-161.17216117216117|-154.57875457875457|-161.9047619047619]
100,2026-01-31 19:26:35,[-156.04395604395606|-147.25274725274724|-150.1831501831502|-158.24175824175825|-147.25274725274724]
101,2026-01-31 19:26:35,[-148.71794871794873|-145.78754578754578|-157.50915750915752|-180.95238095238096|-147.25274725274724]
102,2026-01-31 19:26:35,[-150.91575091575092|-147.25274725274724|-154.57875457875457|-153.1135531135531|-155.3113553113553]
103,2026-01-31 19:26:35,[-156.04395604395606|-158.97435897435898|-159.7069597069597|-164.83516483516485|-161.17216117216117]
104,2026-01-31 19:26:35,[-150.1831501831502|-149.45054945054946|-153.84615384615384|-202.1978021978022|-153.1135531135531]
105,2026-01-31 19:26:35,[-158.24175824175825|-158.97435897435898|-147.25274725274724|-142.85714285714286|-147.25274725274724]
106,2026-01-31 19:26:35,[-148.71794871794873|-156.04395604395606|-160.43956043956044|-169.96336996336996|-160.43956043956044]
107,2026-01-31 19:26:35,[-154.57875457875457|-150.1831501831502|-156.7765567765568|-164.83516483516485|-158.24175824175825]
108,2026-01-31 19:26:35,[-150.1831501831502|-37.362637362637365|175.0915750915751|243.2234432234432|43.223443223443226]
109,2026-01-31 19:26:35,[-241.02564102564102|-371.42857142857144|-242.49084249084248|-148.71794871794873|-135.53113553113553]
110,2026-01-31 19:26:35,[-128.2051282051282|-123.07692307692308|-120.87912087912088|-156.04395604395606|-120.87912087912088]
111,2026-01-31 19:26:36,[-120.87912087912088|-111.35531135531136|-100.36630036630036|-90.10989010989012|-84.24908424908425]
112,2026-01-31 19:26:36,[-76.92307692307692|-65.2014652014652|-54.21245421245421|-39.56043956043956|-32.967032967032964]
113,2026-01-31 19:26:36,[-13.186813186813186|15.384615384615385|22.71062271062271|8.791208791208792|60.8058608058608]
114,2026-01-31 19:26:36,[63.73626373626374|62.27106227106227|60.8058608058608|51.282051282051285|25.641025641025642]
115,2026-01-31 19:26:36,[-6.593406593406593|-51.282051282051285|-97.43589743589743|-134.06593406593407|-160.43956043956044]
116,2026-01-31 19:26:36,[-178.75457875457874|-200.0|-213.91941391941393|-252.01465201465203|-215.3846153846154]
117,2026-01-31 19:26:36,[-220.51282051282053|-223.44322344322345|-220.51282051282053|-212.45421245421247|-214.65201465201466]
118,2026-01-31 19:26:36,[-205.86080586080587|-204.3956043956044|-204.3956043956044|-195.6043956043956|-195.6043956043956]
119,2026-01-31 19:26:36,[-194.87179487179486|-191.2087912087912|-192.67399267399267|-227.83882783882783|-193.4065934065934]
120,2026-01-31 19:26:36,[-191.2087912087912|-191.94139194139194|-191.2087912087912|-191.94139194139194|-193.4065934065934]
121,2026-01-31 19:26:36,[-191.2087912087912|-188.2783882783883|-190.47619047619048|-189.74358974358975|-180.95238095238096]
122,2026-01-31 19:26:36,[-179.48717948717947|-177.28937728937728|-179.48717948717947|-216.84981684981685|-173.62637362637363]
123,2026-01-31 19:26:36,[-173.62637362637363|-178.02197802197801|-170.6959706959707|-173.62637362637363|-169.96336996336996]
124,2026-01-31 19:26:36,[-166.3003663003663|-169.96336996336996|-169.23076923076923|-168.4981684981685|-167.76556776556777]
125,2026-01-31 19:26:36,[-160.43956043956044|-158.97435897435898|-157.50915750915752|-191.2087912087912|-154.57875457875457]
126,2026-01-31 19:26:36,[-160.43956043956044|-169.96336996336996|-172.16117216117217|-175.0915750915751|-170.6959706959707]
127,2026-01-31 19:26:36,[-150.1831501831502|-135.53113553113553|-123.80952380952381|-120.14652014652015|-131.13553113553112]
128,2026-01-31 19:26:36,[-135.53113553113553|-132.6007326007326|-128.2051282051282|-166.3003663003663|-122.34432234432235]
129,2026-01-31 19:26:36,[-122.34432234432235|-147.25274725274724|-114.28571428571429|87.17948717948718|443.2234432234432]
130,2026-01-31 19:26:36,[489.3772893772894|88.64468864468864|-326.007326007326|-336.2637362637363|-142.85714285714286]
131,2026-01-31 19:26:36,[-109.89010989010988|-100.36630036630036|-94.50549450549451|-85.71428571428571|-72.52747252747253]
132,2026-01-31 19:26:36,[-65.2014652014652|-60.8058608058608|-54.21245421245421|-52.747252747252745|-49.08424908424909]
133,2026-01-31 19:26:36,[-38.827838827838825|-29.304029304029303|-24.175824175824175|-8.058608058608058|8.058608058608058]
134,2026-01-31 19:26:36,[17.582417582417584|28.571428571428573|52.014652014652015|41.75824175824176|104.02930402930403]
135,2026-01-31 19:26:36,[131.13553113553112|149.45054945054946|167.03296703296704|178.02197802197801|182.41758241758242]
136,2026-01-31 19:26:36,[177.28937728937728|158.24175824175825|122.34432234432235|75.45787545787546|27.106227106227106]
137,2026-01-31 19:26:37,[-24.90842490842491|-76.92307692307692|-123.80952380952381|-194.13919413919413|-173.62637362637363]
138,2026-01-31 19:26:37,[-182.41758241758242|-197.06959706959708|-202.93040293040292|-195.6043956043956|-195.6043956043956]
139,2026-01-31 19:26:37,[-194.13919413919413|-191.2087912087912|-183.88278388278388|-180.95238095238096|-179.48717948717947]
140,2026-01-31 19:26:37,[-172.16117216117217|-172.8937728937729|-173.62637362637363|-178.02197802197801|-172.16117216117217]
141,2026-01-31 19:26:37,[-172.8937728937729|-172.16117216117217|-173.62637362637363|-172.8937728937729|-172.16117216117217]
142,2026-01-31 19:26:37,[-171.42857142857142|-172.8937728937729|-168.4981684981685|-164.83516483516485|-172.16117216117217]
143,2026-01-31 19:26:37,[-166.3003663003663|-169.96336996336996|-172.16117216117217|-204.3956043956044|-159.7069597069597]
144,2026-01-31 19:26:37,[-161.9047619047619|-158.97435897435898|-157.50915750915752|-152.38095238095238|-146.5201465201465]
145,2026-01-31 19:26:37,[-142.85714285714286|-144.32234432234432|-142.12454212454213|-136.996336996337|-134.7985347985348]
146,2026-01-31 19:26:37,[-125.27472527472527|-123.07692307692308|-126.00732600732601|-160.43956043956044|-115.01831501831502]
147,2026-01-31 19:26:37,[-115.01831501831502|-123.07692307692308|-123.07692307692308|-126.73992673992674|-134.06593406593407]
148,2026-01-31 19:26:37,[-112.08791208791209|-84.98168498168498|-72.52747252747253|-78.3882783882784|-84.98168498168498]
149,2026-01-31 19:26:37,[-98.16849816849818|-111.35531135531136|-115.75091575091575|-144.32234432234432|-102.56410256410257]
150,2026-01-31 19:26:37,[-101.83150183150182|-106.22710622710623|-123.80952380952381|-101.83150183150182|67.3992673992674]
151,2026-01-31 19:26:37,[475.45787545787545|701.8315018315018|311.35531135531136|-248.35164835164835|-427.83882783882785]
152,2026-01-31 19:26:37,[-167.76556776556777|-79.85347985347985|-79.85347985347985|-109.15750915750915|-63.73626373626374]
153,2026-01-31 19:26:37,[-59.34065934065934|-52.014652014652015|-47.61904761904762|-41.75824175824176|-35.8974358974359]
154,2026-01-31 19:26:37,[-24.175824175824175|-14.652014652014651|-5.86080586080586|8.058608058608058|19.047619047619047]
155,2026-01-31 19:26:37,[30.036630036630036|46.15384615384615|62.27106227106227|53.47985347985348|110.62271062271063]
156,2026-01-31 19:26:37,[134.7985347985348|162.63736263736263|186.8131868131868|216.11721611721612|221.97802197802199]
157,2026-01-31 19:26:37,[227.1062271062271|214.65201465201466|194.13919413919413|157.50915750915752|106.95970695970696]
158,2026-01-31 19:26:37,[53.47985347985348|-8.058608058608058|-62.27106227106227|-143.5897435897436|-144.32234432234432]
159,2026-01-31 19:26:37,[-170.6959706959707|-181.6849816849817|-191.2087912087912|-194.87179487179486|-202.1978021978022]
160,2026-01-31 19:26:37,[-193.4065934065934|-189.74358974358975|-190.47619047619048|-188.2783882783883|-182.41758241758242]
161,2026-01-31 19:26:38,[-176.55677655677655|-173.62637362637363|-178.75457875457874|-215.3846153846154|-169.23076923076923]
162,2026-01-31 19:26:38,[-169.23076923076923|-177.28937728937728|-167.03296703296704|-169.23076923076923|-173.62637362637363]
163,2026-01-31 19:26:38,[-170.6959706959707|-165.56776556776558|-168.4981684981685|-174.35897435897436|-173.62637362637363]
164,2026-01-31 19:26:38,[-167.76556776556777|-169.96336996336996|-172.8937728937729|-200.73260073260073|-161.17216117216117]
165,2026-01-31 19:26:38,[-160.43956043956044|-166.3003663003663|-164.10256410256412|-156.04395604395606|-153.1135531135531]
166,2026-01-31 19:26:38,[-150.1831501831502|-145.78754578754578|-145.78754578754578|-142.12454212454213|-142.12454212454213]
167,2026-01-31 19:26:38,[-135.53113553113553|-135.53113553113553|-132.6007326007326|-160.43956043956044|-128.2051282051282]
168,2026-01-31 19:26:38,[-123.80952380952381|-120.87912087912088|-119.41391941391942|-116.48351648351648|-111.35531135531136]
169,2026-01-31 19:26:38,[-103.2967032967033|-106.22710622710623|-106.22710622710623|-107.6923076923077|-100.36630036630036]
170,2026-01-31 19:26:38,[-67.3992673992674|-56.41025641025641|-71.06227106227107|-106.22710622710623|-86.44688644688645]
171,2026-01-31 19:26:38,[-95.97069597069597|-98.9010989010989|-94.50549450549451|-79.85347985347985|-87.17948717948718]
172,2026-01-31 19:26:38,[-84.24908424908425|-102.56410256410257|-80.58608058608058|68.13186813186813|383.1501831501831]
173,2026-01-31 19:26:38,[588.2783882783883|312.0879120879121|-132.6007326007326|-425.64102564102564|-210.25641025641025]
174,2026-01-31 19:26:38,[-72.52747252747253|-60.8058608058608|-56.41025641025641|-49.08424908424909|-52.747252747252745]
175,2026-01-31 19:26:38,[-49.08424908424909|-40.29304029304029|-32.967032967032964|-30.036630036630036|-28.571428571428573]
176,2026-01-31 19:26:38,[-18.315018315018314|-11.72161172161172|-8.058608058608058|-29.304029304029303|18.315018315018314]
177,2026-01-31 19:26:38,[32.967032967032964|41.75824175824176|56.41025641025641|76.92307692307692|103.2967032967033]
178,2026-01-31 19:26:38,[120.87912087912088|138.46153846153845|156.04395604395606|161.17216117216117|160.43956043956044]
179,2026-01-31 19:26:38,[153.84615384615384|135.53113553113553|93.04029304029304|40.29304029304029|12.454212454212454]
180,2026-01-31 19:26:38,[-32.967032967032964|-77.65567765567765|-120.14652014652015|-142.12454212454213|-158.97435897435898]
181,2026-01-31 19:26:38,[-176.55677655677655|-178.02197802197801|-172.16117216117217|-173.62637362637363|-172.16117216117217]
182,2026-01-31 19:26:38,[-167.76556776556777|-173.62637362637363|-169.23076923076923|-200.0|-150.91575091575092]
183,2026-01-31 19:26:38,[-149.45054945054946|-156.7765567765568|-157.50915750915752|-156.7765567765568|-158.24175824175825]
184,2026-01-31 19:26:38,[-154.57875457875457|-167.76556776556777|-161.9047619047619|-169.23076923076923|-172.16117216117217]
185,2026-01-31 19:26:38,[-169.96336996336996|-169.23076923076923|-164.83516483516485|-207.32600732600733|-156.7765567765568]
186,2026-01-31 19:26:39,[-159.7069597069597|-160.43956043956044|-153.1135531135531|-150.1831501831502|-150.1831501831502]
187,2026-01-31 19:26:39,[-150.1831501831502|-147.98534798534797|-144.32234432234432|-149.45054945054946|-145.78754578754578]
188,2026-01-31 19:26:39,[-149.45054945054946|-144.32234432234432|-153.1135531135531|-179.48717948717947|-123.80952380952381]
189,2026-01-31 19:26:39,[-124.54212454212454|-123.80952380952381|-121.6117216117216|-129.67032967032966|-141.3919413919414]
190,2026-01-31 19:26:39,[-136.26373626373626|-121.6117216117216|-115.01831501831502|-115.75091575091575|-120.14652014652015]
191,2026-01-31 19:26:39,[-131.13553113553112|-87.91208791208791|63.73626373626374|309.8901098901099|358.97435897435895]
192,2026-01-31 19:26:39,[104.76190476190476|-248.35164835164835|-347.98534798534797|-202.93040293040292|-112.08791208791209]
193,2026-01-31 19:26:39,[-94.50549450549451|-84.98168498168498|-82.78388278388279|-82.78388278388279|-74.72527472527473]
194,2026-01-31 19:26:39,[-60.8058608058608|-61.53846153846154|-50.54945054945055|-78.3882783882784|-36.63003663003663]
195,2026-01-31 19:26:39,[-37.362637362637365|-24.175824175824175|-24.175824175824175|-19.78021978021978|4.395604395604396]
196,2026-01-31 19:26:39,[13.91941391941392|22.71062271062271|49.81684981684982|68.13186813186813|75.45787545787546]
197,2026-01-31 19:26:39,[97.43589743589743|107.6923076923077|98.16849816849818|62.27106227106227|81.31868131868131]
198,2026-01-31 19:26:39,[46.15384615384615|8.058608058608058|-27.106227106227106|-75.45787545787546|-111.35531135531136]
199,2026-01-31 19:26:39,[-135.53113553113553|-153.1135531135531|-161.9047619047619|-167.76556776556777|-178.02197802197801]
200,2026-01-31 19:26:39,[-179.48717948717947|-180.95238095238096|-178.75457875457874|-215.3846153846154|-176.55677655677655]
201,2026-01-31 19:26:39,[-173.62637362637363|-167.76556776556777|-167.76556776556777|-158.97435897435898|-158.97435897435898]
202,2026-01-31 19:26:39,[-153.1135531135531|-166.3003663003663|-155.3113553113553|-156.04395604395606|-164.83516483516485]
203,2026-01-31 19:26:39,[-154.57875457875457|-157.50915750915752|-156.7765567765568|-201.46520146520146|-158.97435897435898]
204,2026-01-31 19:26:39,[-158.97435897435898|-149.45054945054946|-153.1135531135531|-158.97435897435898|-154.57875457875457]
205,2026-01-31 19:26:39,[-148.71794871794873|-158.97435897435898|-145.78754578754578|-145.78754578754578|-149.45054945054946]
206,2026-01-31 19:26:39,[-141.3919413919414|-156.04395604395606|-153.84615384615384|-191.2087912087912|-150.1831501831502]
207,2026-01-31 19:26:39,[-136.996336996337|-134.06593406593407|-127.47252747252747|-120.87912087912088|-120.87912087912088]
208,2026-01-31 19:26:39,[-135.53113553113553|-142.85714285714286|-126.00732600732601|-123.07692307692308|-120.87912087912088]
209,2026-01-31 19:26:39,[-120.87912087912088|-123.80952380952381|-125.27472527472527|-95.97069597069597|128.2051282051282]
210,2026-01-31 19:26:39,[350.1831501831502|221.97802197802199|-27.106227106227106|-312.8205128205128|-298.16849816849816]
211,2026-01-31 19:26:39,[-150.1831501831502|-115.75091575091575|-100.36630036630036|-87.17948717948718|-85.71428571428571]
212,2026-01-31 19:26:40,[-78.3882783882784|-73.99267399267399|-65.2014652014652|-98.9010989010989|-52.014652014652015]
213,2026-01-31 19:26:40,[-52.747252747252745|-52.747252747252745|-38.827838827838825|-31.501831501831504|-21.245421245421245]
214,2026-01-31 19:26:40,[-15.384615384615385|-6.593406593406593|17.582417582417584|31.501831501831504|44.688644688644686]
215,2026-01-31 19:26:40,[65.93406593406593|78.3882783882784|87.91208791208791|56.41025641025641|86.44688644688645]
216,2026-01-31 19:26:40,[69.59706959706959|52.747252747252745|27.106227106227106|-12.454212454212454|-50.54945054945055]
217,2026-01-31 19:26:40,[-87.17948717948718|-113.55311355311355|-134.06593406593407|-158.97435897435898|-165.56776556776558]
218,2026-01-31 19:26:40,[-169.96336996336996|-176.55677655677655|-172.16117216117217|-208.7912087912088|-170.6959706959707]
219,2026-01-31 19:26:40,[-167.03296703296704|-172.8937728937729|-167.76556776556777|-166.3003663003663|-156.04395604395606]
220,2026-01-31 19:26:40,[-148.71794871794873|-154.57875457875457|-147.25274725274724|-154.57875457875457|-155.3113553113553]
221,2026-01-31 19:26:40,[-153.1135531135531|-153.1135531135531|-156.04395604395606|-192.67399267399267|-149.45054945054946]
222,2026-01-31 19:26:40,[-154.57875457875457|-149.45054945054946|-153.84615384615384|-157.50915750915752|-157.50915750915752]
223,2026-01-31 19:26:40,[-147.98534798534797|-150.1831501831502|-148.71794871794873|-154.57875457875457|-153.1135531135531]
224,2026-01-31 19:26:40,[-142.85714285714286|-144.32234432234432|-143.5897435897436|-172.16117216117217|-135.53113553113553]
225,2026-01-31 19:26:40,[-143.5897435897436|-141.3919413919414|-131.13553113553112|-136.26373626373626|-134.7985347985348]
226,2026-01-31 19:26:40,[-129.67032967032966|-131.13553113553112|-132.6007326007326|-134.7985347985348|-134.7985347985348]
227,2026-01-31 19:26:40,[-131.13553113553112|-131.86813186813185|-131.13553113553112|-150.1831501831502|-144.32234432234432]
228,2026-01-31 19:26:40,[-128.2051282051282|-125.27472527472527|-116.48351648351648|-110.62271062271063|-120.87912087912088]
229,2026-01-31 19:26:40,[-123.80952380952381|-120.87912087912088|-114.28571428571429|-115.01831501831502|-114.28571428571429]
230,2026-01-31 19:26:40,[-106.22710622710623|-123.80952380952381|-134.06593406593407|-95.97069597069597|182.41758241758242]
231,2026-01-31 19:26:40,[409.5238095238095|261.53846153846155|-52.747252747252745|-322.34432234432234|-220.51282051282053]
232,2026-01-31 19:26:40,[-111.35531135531136|-107.6923076923077|-101.83150183150182|-94.50549450549451|-83.51648351648352]
233,2026-01-31 19:26:40,[-81.31868131868131|-78.3882783882784|-73.99267399267399|-101.83150183150182|-56.41025641025641]
234,2026-01-31 19:26:40,[-50.54945054945055|-52.014652014652015|-47.61904761904762|-41.02564102564103|-37.362637362637365]
235,2026-01-31 19:26:40,[-24.175824175824175|-15.384615384615385|-7.326007326007326|10.989010989010989|25.641025641025642]
236,2026-01-31 19:26:41,[52.747252747252745|61.53846153846154|69.59706959706959|40.29304029304029|84.24908424908425]
237,2026-01-31 19:26:41,[75.45787545787546|53.47985347985348|32.967032967032964|-2.93040293040293|-32.967032967032964]
238,2026-01-31 19:26:41,[-67.3992673992674|-112.08791208791209|-134.06593406593407|-157.50915750915752|-172.16117216117217]
239,2026-01-31 19:26:41,[-173.62637362637363|-182.41758241758242|-189.74358974358975|-229.3040293040293|-183.15018315018315]
240,2026-01-31 19:26:41,[-182.41758241758242|-193.4065934065934|-181.6849816849817|-178.02197802197801|-170.6959706959707]
241,2026-01-31 19:26:41,[-161.17216117216117|-167.76556776556777|-166.3003663003663|-161.9047619047619|-164.83516483516485]
242,2026-01-31 19:26:41,[-160.43956043956044|-164.10256410256412|-161.9047619047619|-201.46520146520146|-161.9047619047619]
243,2026-01-31 19:26:41,[-158.97435897435898|-166.3003663003663|-161.9047619047619|-157.50915750915752|-164.10256410256412]
244,2026-01-31 19:26:41,[-156.7765567765568|-164.83516483516485|-155.3113553113553|-156.04395604395606|-157.50915750915752]
245,2026-01-31 19:26:41,[-153.1135531135531|-153.84615384615384|-149.45054945054946|-183.88278388278388|-147.98534798534797]
246,2026-01-31 19:26:41,[-146.5201465201465|-153.84615384615384|-150.1831501831502|-156.04395604395606|-153.1135531135531]
247,2026-01-31 19:26:41,[-145.78754578754578|-155.3113553113553|-147.25274725274724|-145.05494505494505|-141.3919413919414]
248,2026-01-31 19:26:41,[-134.7985347985348|-141.3919413919414|-132.6007326007326|-167.76556776556777|-126.73992673992674]
249,2026-01-31 19:26:41,[-123.07692307692308|-130.4029304029304|-125.27472527472527|-119.41391941391942|-122.34432234432235]
250,2026-01-31 19:26:41,[-119.41391941391942|-124.54212454212454|-119.41391941391942|-118.68131868131869|-119.41391941391942]
251,2026-01-31 19:26:41,[-113.55311355311355|-118.68131868131869|-122.34432234432235|-157.50915750915752|-126.73992673992674]
252,2026-01-31 19:26:41,[-115.01831501831502|-98.9010989010989|-76.92307692307692|-84.24908424908425|-85.71428571428571]
253,2026-01-31 19:26:41,[-95.23809523809524|-105.49450549450549|-103.2967032967033|-102.56410256410257|-102.56410256410257]
254,2026-01-31 19:26:41,[-94.50549450549451|-95.97069597069597|-117.94871794871794|-154.57875457875457|12.454212454212454]
255,2026-01-31 19:26:41,[366.3003663003663|594.1391941391942|292.3076923076923|-190.47619047619048|-347.98534798534797]
256,2026-01-31 19:26:41,[-134.06593406593407|-79.85347985347985|-76.19047619047619|-68.13186813186813|-68.13186813186813]
257,2026-01-31 19:26:41,[-56.41025641025641|-54.21245421245421|-49.81684981684982|-50.54945054945055|-32.234432234432234]
258,2026-01-31 19:26:41,[-29.304029304029303|-27.106227106227106|-16.84981684981685|-8.058608058608058|8.058608058608058]
259,2026-01-31 19:26:41,[22.71062271062271|30.036630036630036|46.15384615384615|61.53846153846154|81.31868131868131]
260,2026-01-31 19:26:41,[107.6923076923077|130.4029304029304|158.97435897435898|154.57875457875457|202.93040293040292]
261,2026-01-31 19:26:42,[205.86080586080587|198.53479853479854|181.6849816849817|148.71794871794873|115.01831501831502]
262,2026-01-31 19:26:42,[65.2014652014652|-3.663003663003663|-56.41025641025641|-112.82051282051282|-143.5897435897436]
263,2026-01-31 19:26:42,[-167.76556776556777|-183.15018315018315|-197.06959706959708|-241.02564102564102|-195.6043956043956]
264,2026-01-31 19:26:42,[-197.06959706959708|-201.46520146520146|-196.33699633699635|-190.47619047619048|-195.6043956043956]
265,2026-01-31 19:26:42,[-190.47619047619048|-190.47619047619048|-188.2783882783883|-192.67399267399267|-192.67399267399267]
266,2026-01-31 19:26:42,[-188.2783882783883|-188.2783882783883|-188.2783882783883|-226.37362637362637|-183.15018315018315]
267,2026-01-31 19:26:42,[-182.41758241758242|-193.4065934065934|-188.2783882783883|-188.2783882783883|-191.94139194139194]
268,2026-01-31 19:26:42,[-189.01098901098902|-189.01098901098902|-178.02197802197801|-179.48717948717947|-182.41758241758242]
269,2026-01-31 19:26:42,[-174.35897435897436|-180.95238095238096|-172.16117216117217|-214.65201465201466|-167.03296703296704]
270,2026-01-31 19:26:42,[-164.83516483516485|-169.23076923076923|-160.43956043956044|-158.97435897435898|-158.97435897435898]
271,2026-01-31 19:26:42,[-156.04395604395606|-159.7069597069597|-148.71794871794873|-145.78754578754578|-144.32234432234432]
272,2026-01-31 19:26:42,[-134.7985347985348|-134.06593406593407|-131.13553113553112|-174.35897435897436|-130.4029304029304]
273,2026-01-31 19:26:42,[-123.80952380952381|-129.67032967032966|-125.27472527472527|-122.34432234432235|-125.27472527472527]
274,2026-01-31 19:26:42,[-119.41391941391942|-119.41391941391942|-112.08791208791209|-112.82051282051282|-110.62271062271063]
275,2026-01-31 19:26:42,[-106.22710622710623|-107.6923076923077|-100.36630036630036|-106.22710622710623|-97.43589743589743]
276,2026-01-31 19:26:42,[-97.43589743589743|-98.9010989010989|-101.83150183150182|-101.83150183150182|-75.45787545787546]
277,2026-01-31 19:26:42,[-50.54945054945055|-63.73626373626374|-67.3992673992674|-85.71428571428571|-106.22710622710623]
278,2026-01-31 19:26:42,[-103.2967032967033|-98.16849816849818|-95.97069597069597|-136.26373626373626|-98.9010989010989]
279,2026-01-31 19:26:42,[-107.6923076923077|-126.73992673992674|-49.81684981684982|232.23443223443223|654.2124542124542]
280,2026-01-31 19:26:42,[629.3040293040293|116.48351648351648|-356.7765567765568|-310.6227106227106|-108.42490842490842]
281,2026-01-31 19:26:42,[-76.92307692307692|-75.45787545787546|-63.73626373626374|-95.97069597069597|-43.223443223443226]
282,2026-01-31 19:26:42,[-40.29304029304029|-41.75824175824176|-29.304029304029303|-25.641025641025642|-19.78021978021978]
283,2026-01-31 19:26:42,[-9.523809523809524|-6.593406593406593|12.454212454212454|19.78021978021978|30.036630036630036]
284,2026-01-31 19:26:42,[50.54945054945055|66.66666666666667|88.64468864468864|81.31868131868131|139.9267399267399]
285,2026-01-31 19:26:42,[167.76556776556777|183.88278388278388|210.25641025641025|219.04761904761904|224.9084249084249]
286,2026-01-31 19:26:43,[216.11721611721612|186.8131868131868|155.3113553113553|91.57509157509158|28.571428571428573]
287,2026-01-31 19:26:43,[-29.304029304029303|-87.17948717948718|-132.6007326007326|-170.6959706959707|-182.41758241758242]
288,2026-01-31 19:26:43,[-202.93040293040292|-216.11721611721612|-216.11721611721612|-216.11721611721612|-219.04761904761904]
289,2026-01-31 19:26:43,[-212.45421245421247|-211.7216117216117|-204.3956043956044|-208.05860805860806|-201.46520146520146]
290,2026-01-31 19:26:43,[-191.2087912087912|-191.2087912087912|-191.94139194139194|-224.17582417582418|-183.88278388278388]
291,2026-01-31 19:26:43,[-191.2087912087912|-194.13919413919413|-188.2783882783883|-193.4065934065934|-192.67399267399267]
292,2026-01-31 19:26:43,[-193.4065934065934|-195.6043956043956|-191.94139194139194|-194.13919413919413|-194.13919413919413]
293,2026-01-31 19:26:43,[-183.88278388278388|-188.2783882783883|-182.41758241758242|-218.3150183150183|-173.62637362637363]
294,2026-01-31 19:26:43,[-172.16117216117217|-176.55677655677655|-172.16117216117217|-174.35897435897436|-172.16117216117217]
295,2026-01-31 19:26:43,[-164.83516483516485|-167.76556776556777|-161.17216117216117|-159.7069597069597|-154.57875457875457]
296,2026-01-31 19:26:43,[-154.57875457875457|-154.57875457875457|-149.45054945054946|-188.2783882783883|-142.85714285714286]
297,2026-01-31 19:26:43,[-145.78754578754578|-147.25274725274724|-147.98534798534797|-153.1135531135531|-134.06593406593407]
298,2026-01-31 19:26:43,[-123.80952380952381|-125.27472527472527|-120.87912087912088|-125.27472527472527|-123.80952380952381]
299,2026-01-31 19:26:43,[-115.75091575091575|-120.87912087912088|-117.94871794871794|-153.1135531135531|-109.15750915750915]
300,2026-01-31 19:26:43,[-112.08791208791209|-114.28571428571429|-109.15750915750915|-110.62271062271063|-110.62271062271063]
301,2026-01-31 19:26:43,[-109.15750915750915|-107.6923076923077|-107.6923076923077|-109.15750915750915|-85.71428571428571]
302,2026-01-31 19:26:43,[-53.47985347985348|-56.41025641025641|-67.3992673992674|-119.41391941391942|-98.9010989010989]
303,2026-01-31 19:26:43,[-97.43589743589743|-96.7032967032967|-94.50549450549451|-98.9010989010989|-95.23809523809524]
304,2026-01-31 19:26:43,[-95.23809523809524|-113.55311355311355|-63.73626373626374|149.45054945054946|554.5787545787546]
305,2026-01-31 19:26:43,[652.7472527472528|202.93040293040292|-309.8901098901099|-402.1978021978022|-123.80952380952381]
306,2026-01-31 19:26:43,[-72.52747252747253|-77.65567765567765|-66.66666666666667|-60.8058608058608|-54.94505494505494]
307,2026-01-31 19:26:43,[-49.08424908424909|-43.223443223443226|-36.63003663003663|-35.8974358974359|-27.106227106227106]
308,2026-01-31 19:26:43,[-19.78021978021978|-15.384615384615385|4.395604395604396|-24.90842490842491|28.571428571428573]
309,2026-01-31 19:26:43,[43.223443223443226|60.8058608058608|79.85347985347985|106.22710622710623|132.6007326007326]
310,2026-01-31 19:26:43,[160.43956043956044|180.21978021978023|207.32600732600733|219.04761904761904|219.78021978021977]
311,2026-01-31 19:26:44,[217.58241758241758|183.88278388278388|145.78754578754578|56.41025641025641|41.75824175824176]
312,2026-01-31 19:26:44,[-19.78021978021978|-84.24908424908425|-124.54212454212454|-167.76556776556777|-191.94139194139194]
313,2026-01-31 19:26:44,[-205.86080586080587|-221.24542124542126|-217.58241758241758|-223.44322344322345|-219.04761904761904]
314,2026-01-31 19:26:44,[-214.65201465201466|-214.65201465201466|-207.32600732600733|-241.02564102564102|-200.0]
315,2026-01-31 19:26:44,[-191.94139194139194|-191.2087912087912|-182.41758241758242|-183.88278388278388|-182.41758241758242]
316,2026-01-31 19:26:44,[-182.41758241758242|-191.2087912087912|-189.01098901098902|-192.67399267399267|-189.01098901098902]
317,2026-01-31 19:26:44,[-179.48717948717947|-181.6849816849817|-173.62637362637363|-219.04761904761904|-181.6849816849817]
318,2026-01-31 19:26:44,[-180.95238095238096|-181.6849816849817|-173.62637362637363|-175.0915750915751|-173.62637362637363]
319,2026-01-31 19:26:44,[-166.3003663003663|-167.76556776556777|-166.3003663003663|-167.76556776556777|-159.7069597069597]
320,2026-01-31 19:26:44,[-156.7765567765568|-153.1135531135531|-146.5201465201465|-178.02197802197801|-142.85714285714286]
321,2026-01-31 19:26:44,[-142.85714285714286|-145.78754578754578|-144.32234432234432|-149.45054945054946|-148.71794871794873]
322,2026-01-31 19:26:44,[-135.53113553113553|-135.53113553113553|-131.86813186813185|-136.996336996337|-136.26373626373626]
323,2026-01-31 19:26:44,[-123.80952380952381|-121.6117216117216|-120.87912087912088|-125.27472527472527|-119.41391941391942]
324,2026-01-31 19:26:44,[-109.89010989010988|-109.15750915750915|-107.6923076923077|-114.28571428571429|-112.08791208791209]
325,2026-01-31 19:26:44,[-109.15750915750915|-113.55311355311355|-99.63369963369964|-115.01831501831502|-109.89010989010988]
326,2026-01-31 19:26:44,[-84.24908424908425|-73.99267399267399|-68.13186813186813|-110.62271062271063|-89.37728937728937]
327,2026-01-31 19:26:44,[-101.83150183150182|-100.36630036630036|-97.43589743589743|-99.63369963369964|-101.83150183150182]
328,2026-01-31 19:26:44,[-95.23809523809524|-109.15750915750915|-100.36630036630036|13.91941391941392|307.6923076923077]
329,2026-01-31 19:26:44,[594.8717948717949|416.1172161172161|-29.304029304029303|-408.7912087912088|-264.46886446886447]
330,2026-01-31 19:26:44,[-101.83150183150182|-67.3992673992674|-66.66666666666667|-62.27106227106227|-53.47985347985348]
331,2026-01-31 19:26:44,[-54.94505494505494|-49.81684981684982|-36.63003663003663|-40.29304029304029|-31.501831501831504]
332,2026-01-31 19:26:44,[-19.78021978021978|-18.315018315018314|-6.593406593406593|-24.90842490842491|21.245421245421245]
333,2026-01-31 19:26:44,[28.571428571428573|41.75824175824176|53.47985347985348|69.59706959706959|98.9010989010989]
334,2026-01-31 19:26:44,[125.27472527472527|151.64835164835165|170.6959706959707|185.34798534798534|183.88278388278388]
335,2026-01-31 19:26:44,[178.02197802197801|155.3113553113553|125.27472527472527|43.223443223443226|33.6996336996337]
336,2026-01-31 19:26:45,[-21.245421245421245|-79.85347985347985|-114.28571428571429|-156.04395604395606|-173.62637362637363]
337,2026-01-31 19:26:45,[-191.2087912087912|-202.93040293040292|-197.06959706959708|-207.32600732600733|-211.7216117216117]
338,2026-01-31 19:26:45,[-201.46520146520146|-202.93040293040292|-189.01098901098902|-226.37362637362637|-178.75457875457874]
339,2026-01-31 19:26:45,[-164.83516483516485|-169.96336996336996|-164.83516483516485|-166.3003663003663|-157.50915750915752]
340,2026-01-31 19:26:45,[-156.7765567765568|-156.04395604395606|-148.71794871794873|-153.1135531135531|-164.10256410256412]
341,2026-01-31 19:26:45,[-160.43956043956044|-167.76556776556777|-166.3003663003663|-210.25641025641025|-167.03296703296704]
342,2026-01-31 19:26:45,[-164.10256410256412|-169.96336996336996|-158.24175824175825|-164.83516483516485|-158.97435897435898]
343,2026-01-31 19:26:45,[-158.24175824175825|-169.23076923076923|-164.83516483516485|-164.83516483516485|-161.9047619047619]
344,2026-01-31 19:26:45,[-156.04395604395606|-156.7765567765568|-153.84615384615384|-192.67399267399267|-144.32234432234432]
345,2026-01-31 19:26:45,[-136.996336996337|-146.5201465201465|-142.12454212454213|-147.98534798534797|-142.12454212454213]
346,2026-01-31 19:26:45,[-135.53113553113553|-131.86813186813185|-120.87912087912088|-131.13553113553112|-135.53113553113553]
347,2026-01-31 19:26:45,[-126.73992673992674|-123.80952380952381|-120.14652014652015|-148.71794871794873|-94.50549450549451]
348,2026-01-31 19:26:45,[-95.23809523809524|-101.0989010989011|-106.95970695970696|-126.73992673992674|-127.47252747252747]
349,2026-01-31 19:26:45,[-119.41391941391942|-115.01831501831502|-109.15750915750915|-112.82051282051282|-121.6117216117216]
350,2026-01-31 19:26:45,[-121.6117216117216|-65.2014652014652|134.06593406593407|427.1062271062271|389.010989010989]
351,2026-01-31 19:26:45,[69.59706959706959|-305.4945054945055|-343.5897435897436|-172.16117216117217|-96.7032967032967]
352,2026-01-31 19:26:45,[-77.65567765567765|-75.45787545787546|-65.2014652014652|-73.99267399267399|-65.2014652014652]
353,2026-01-31 19:26:45,[-56.41025641025641|-50.54945054945055|-38.827838827838825|-73.99267399267399|-35.8974358974359]
354,2026-01-31 19:26:45,[-24.175824175824175|-21.245421245421245|-5.86080586080586|-2.197802197802198|16.117216117216117]
355,2026-01-31 19:26:45,[37.362637362637365|52.747252747252745|69.59706959706959|88.64468864468864|117.21611721611721]
356,2026-01-31 19:26:45,[132.6007326007326|145.78754578754578|154.57875457875457|107.6923076923077|126.73992673992674]
357,2026-01-31 19:26:45,[110.62271062271063|53.47985347985348|15.384615384615385|-49.08424908424909|-96.7032967032967]
358,2026-01-31 19:26:45,[-125.27472527472527|-158.24175824175825|-170.6959706959707|-189.74358974358975|-195.6043956043956]
359,2026-01-31 19:26:45,[-188.2783882783883|-191.2087912087912|-189.74358974358975|-223.44322344322345|-179.48717948717947]
360,2026-01-31 19:26:45,[-173.62637362637363|-173.62637362637363|-169.23076923076923|-170.6959706959707|-166.3003663003663]
361,2026-01-31 19:26:45,[-158.97435897435898|-158.97435897435898|-154.57875457875457|-150.1831501831502|-153.1135531135531]
362,2026-01-31 19:26:46,[-153.84615384615384|-153.84615384615384|-160.43956043956044|-216.11721611721612|-158.97435897435898]
363,2026-01-31 19:26:46,[-150.1831501831502|-180.95238095238096|-172.8937728937729|-169.23076923076923|-169.96336996336996]
364,2026-01-31 19:26:46,[-166.3003663003663|-172.16117216117217|-153.84615384615384|-156.7765567765568|-158.97435897435898]
365,2026-01-31 19:26:46,[-157.50915750915752|-157.50915750915752|-150.1831501831502|-197.06959706959708|-143.5897435897436]
366,2026-01-31 19:26:46,[-145.78754578754578|-155.3113553113553|-150.1831501831502|-153.1135531135531|-153.1135531135531]
367,2026-01-31 19:26:46,[-147.25274725274724|-157.50915750915752|-164.83516483516485|-166.3003663003663|-147.98534798534797]
368,2026-01-31 19:26:46,[-131.13553113553112|-131.13553113553112|-135.53113553113553|-187.54578754578753|-150.1831501831502]
369,2026-01-31 19:26:46,[-153.1135531135531|-157.50915750915752|-145.78754578754578|-152.38095238095238|-147.25274725274724]
370,2026-01-31 19:26:46,[-158.97435897435898|-154.57875457875457|-38.095238095238095|246.8864468864469|460.8058608058608]
371,2026-01-31 19:26:46,[239.56043956043956|-161.17216117216117|-408.7912087912088|-263.7362637362637|-131.86813186813185]
372,2026-01-31 19:26:46,[-110.62271062271063|-107.6923076923077|-97.43589743589743|-94.50549450549451|-85.71428571428571]
373,2026-01-31 19:26:46,[-78.3882783882784|-71.06227106227107|-61.53846153846154|-61.53846153846154|-53.47985347985348]
374,2026-01-31 19:26:46,[-40.29304029304029|-33.6996336996337|-25.641025641025642|-54.94505494505494|8.058608058608058]
375,2026-01-31 19:26:46,[22.71062271062271|29.304029304029303|53.47985347985348|76.92307692307692|110.62271062271063]
376,2026-01-31 19:26:46,[128.2051282051282|145.78754578754578|153.1135531135531|148.71794871794873|134.06593406593407]
377,2026-01-31 19:26:46,[110.62271062271063|76.92307692307692|41.75824175824176|-55.67765567765568|-71.7948717948718]
378,2026-01-31 19:26:46,[-112.08791208791209|-153.1135531135531|-167.76556776556777|-191.2087912087912|-200.0]
379,2026-01-31 19:26:46,[-206.5934065934066|-207.32600732600733|-202.93040293040292|-206.5934065934066|-202.1978021978022]
380,2026-01-31 19:26:46,[-200.0|-195.6043956043956|-188.2783882783883|-220.51282051282053|-177.28937728937728]
381,2026-01-31 19:26:46,[-173.62637362637363|-176.55677655677655|-170.6959706959707|-178.02197802197801|-170.6959706959707]
382,2026-01-31 19:26:46,[-170.6959706959707|-172.16117216117217|-167.03296703296704|-173.62637362637363|-172.8937728937729]
383,2026-01-31 19:26:46,[-168.4981684981685|-172.16117216117217|-173.62637362637363|-214.65201465201466|-169.23076923076923]
384,2026-01-31 19:26:46,[-172.16117216117217|-170.6959706959707|-160.43956043956044|-167.76556776556777|-167.76556776556777]
385,2026-01-31 19:26:46,[-157.50915750915752|-156.7765567765568|-153.84615384615384|-156.04395604395606|-148.71794871794873]
386,2026-01-31 19:26:47,[-149.45054945054946|-156.04395604395606|-153.1135531135531|-178.02197802197801|-126.73992673992674]
387,2026-01-31 19:26:47,[-133.33333333333334|-135.53113553113553|-129.67032967032966|-125.27472527472527|-126.00732600732601]
388,2026-01-31 19:26:47,[-124.54212454212454|-131.86813186813185|-126.73992673992674|-144.32234432234432|-136.996336996337]
389,2026-01-31 19:26:47,[-129.67032967032966|-119.41391941391942|-104.02930402930403|-136.996336996337|-101.83150183150182]
390,2026-01-31 19:26:47,[-113.55311355311355|-119.41391941391942|-111.35531135531136|-111.35531135531136|-110.62271062271063]
391,2026-01-31 19:26:47,[-110.62271062271063|-113.55311355311355|-123.80952380952381|-75.45787545787546|156.04395604395606]
392,2026-01-31 19:26:47,[510.6227106227106|473.2600732600733|22.71062271062271|-426.3736263736264|-290.84249084249086]
393,2026-01-31 19:26:47,[-110.62271062271063|-90.10989010989012|-76.92307692307692|-71.7948717948718|-63.73626373626374]
394,2026-01-31 19:26:47,[-53.47985347985348|-47.61904761904762|-40.29304029304029|-46.88644688644688|-38.827838827838825]
395,2026-01-31 19:26:47,[-30.76923076923077|-19.78021978021978|-12.454212454212454|-38.095238095238095|20.512820512820515]
396,2026-01-31 19:26:47,[27.106227106227106|32.967032967032964|52.014652014652015|67.3992673992674|90.10989010989012]
397,2026-01-31 19:26:47,[120.14652014652015|138.46153846153845|169.23076923076923|178.75457875457874|183.88278388278388]
398,2026-01-31 19:26:47,[181.6849816849817|170.6959706959707|145.78754578754578|71.7948717948718|52.014652014652015]
399,2026-01-31 19:26:47,[-13.186813186813186|-66.66666666666667|-106.22710622710623|-142.85714285714286|-161.9047619047619]
400,2026-01-31 19:26:47,[-182.41758241758242|-197.06959706959708|-200.73260073260073|-208.05860805860806|-201.46520146520146]
401,2026-01-31 19:26:47,[-200.0|-197.06959706959708|-197.06959706959708|-228.57142857142858|-177.28937728937728]
402,2026-01-31 19:26:47,[-180.21978021978023|-183.15018315018315|-179.48717948717947|-179.48717948717947|-179.48717948717947]
403,2026-01-31 19:26:47,[-180.95238095238096|-181.6849816849817|-172.16117216117217|-175.0915750915751|-173.62637362637363]
404,2026-01-31 19:26:47,[-173.62637362637363|-172.16117216117217|-172.8937728937729|-208.05860805860806|-170.6959706959707]
405,2026-01-31 19:26:47,[-172.16117216117217|-172.16117216117217|-169.23076923076923|-167.03296703296704|-159.7069597069597]
406,2026-01-31 19:26:47,[-158.97435897435898|-158.97435897435898|-156.7765567765568|-164.83516483516485|-160.43956043956044]
407,2026-01-31 19:26:47,[-156.04395604395606|-154.57875457875457|-148.71794871794873|-188.2783882783883|-143.5897435897436]
408,2026-01-31 19:26:47,[-144.32234432234432|-142.12454212454213|-135.53113553113553|-141.3919413919414|-132.6007326007326]
409,2026-01-31 19:26:47,[-129.67032967032966|-134.06593406593407|-132.6007326007326|-132.6007326007326|-131.13553113553112]
410,2026-01-31 19:26:47,[-125.27472527472527|-126.00732600732601|-123.80952380952381|-156.04395604395606|-118.68131868131869]
411,2026-01-31 19:26:48,[-117.94871794871794|-122.34432234432235|-118.68131868131869|-114.28571428571429|-110.62271062271063]
412,2026-01-31 19:26:48,[-102.56410256410257|-109.15750915750915|-102.56410256410257|-107.6923076923077|-107.6923076923077]
413,2026-01-31 19:26:48,[-94.50549450549451|-73.99267399267399|-63.73626373626374|-107.6923076923077|-76.92307692307692]
414,2026-01-31 19:26:48,[-103.2967032967033|-112.08791208791209|-102.56410256410257|-106.95970695970696|-103.2967032967033]
415,2026-01-31 19:26:48,[-103.2967032967033|-106.22710622710623|-115.01831501831502|-109.15750915750915|54.21245421245421]
416,2026-01-31 19:26:48,[425.64102564102564|601.4652014652015|242.49084249084248|-302.56410256410254|-383.1501831501831]
417,2026-01-31 19:26:48,[-155.3113553113553|-90.10989010989012|-78.3882783882784|-75.45787545787546|-66.66666666666667]
418,2026-01-31 19:26:48,[-60.07326007326007|-50.54945054945055|-41.75824175824176|-47.61904761904762|-37.362637362637365]
419,2026-01-31 19:26:48,[-31.501831501831504|-27.106227106227106|-13.91941391941392|-19.78021978021978|6.593406593406593]
420,2026-01-31 19:26:48,[22.71062271062271|33.6996336996337|50.54945054945055|74.72527472527473|93.04029304029304]
421,2026-01-31 19:26:48,[123.80952380952381|148.71794871794873|172.16117216117217|195.6043956043956|205.12820512820514]
422,2026-01-31 19:26:48,[202.93040293040292|192.67399267399267|172.8937728937729|109.15750915750915|92.3076923076923]
423,2026-01-31 19:26:48,[32.967032967032964|-32.234432234432234|-76.92307692307692|-123.07692307692308|-156.7765567765568]
424,2026-01-31 19:26:48,[-179.48717948717947|-194.13919413919413|-195.6043956043956|-203.66300366300365|-202.93040293040292]
425,2026-01-31 19:26:48,[-202.1978021978022|-200.0|-200.0|-227.1062271062271|-179.48717948717947]
426,2026-01-31 19:26:48,[-179.48717948717947|-180.95238095238096|-179.48717948717947|-178.02197802197801|-176.55677655677655]
427,2026-01-31 19:26:48,[-173.62637362637363|-172.8937728937729|-170.6959706959707|-178.75457875457874|-170.6959706959707]
428,2026-01-31 19:26:48,[-167.76556776556777|-171.42857142857142|-169.96336996336996|-217.58241758241758|-176.55677655677655]
429,2026-01-31 19:26:48,[-175.0915750915751|-179.48717948717947|-178.02197802197801|-183.15018315018315|-180.21978021978023]
430,2026-01-31 19:26:48,[-173.62637362637363|-170.6959706959707|-166.3003663003663|-170.6959706959707|-167.76556776556777]
431,2026-01-31 19:26:48,[-165.56776556776558|-167.03296703296704|-159.7069597069597|-195.6043956043956|-149.45054945054946]
432,2026-01-31 19:26:48,[-154.57875457875457|-150.1831501831502|-147.25274725274724|-145.78754578754578|-142.12454212454213]
433,2026-01-31 19:26:48,[-133.33333333333334|-134.06593406593407|-137.72893772893772|-145.05494505494505|-135.53113553113553]
434,2026-01-31 19:26:48,[-130.4029304029304|-129.67032967032966|-123.07692307692308|-131.13553113553112|-117.94871794871794]
435,2026-01-31 19:26:48,[-121.6117216117216|-115.75091575091575|-115.01831501831502|-117.94871794871794|-112.82051282051282]
436,2026-01-31 19:26:48,[-117.94871794871794|-113.55311355311355|-101.83150183150182|-113.55311355311355|-112.08791208791209]
437,2026-01-31 19:26:49,[-114.28571428571429|-109.89010989010988|-106.95970695970696|-147.25274725274724|-106.22710622710623]
438,2026-01-31 19:26:49,[-110.62271062271063|-119.41391941391942|-108.42490842490842|-87.17948717948718|-62.27106227106227]
439,2026-01-31 19:26:49,[-68.13186813186813|-75.45787545787546|-84.24908424908425|-100.36630036630036|-101.83150183150182]
440,2026-01-31 19:26:49,[-101.83150183150182|-97.43589743589743|-101.83150183150182|-131.13553113553112|-94.50549450549451]
441,2026-01-31 19:26:49,[-119.41391941391942|-82.78388278388279|115.01831501831502|494.5054945054945|591.2087912087912]
442,2026-01-31 19:26:49,[180.95238095238096|-302.56410256410254|-351.64835164835165|-125.27472527472527|-72.52747252747253]
443,2026-01-31 19:26:49,[-70.32967032967034|-65.2014652014652|-59.34065934065934|-86.44688644688645|-47.61904761904762]
444,2026-01-31 19:26:49,[-41.75824175824176|-41.02564102564103|-32.234432234432234|-32.234432234432234|-24.175824175824175]
445,2026-01-31 19:26:49,[-11.72161172161172|-5.128205128205129|13.91941391941392|19.78021978021978|38.095238095238095]
446,2026-01-31 19:26:49,[56.41025641025641|73.99267399267399|98.9010989010989|91.57509157509158|154.57875457875457]
447,2026-01-31 19:26:49,[173.62637362637363|194.13919413919413|202.93040293040292|197.06959706959708|185.34798534798534]
448,2026-01-31 19:26:49,[163.36996336996336|126.73992673992674|85.71428571428571|22.71062271062271|-29.304029304029303]
449,2026-01-31 19:26:49,[-84.24908424908425|-127.47252747252747|-158.97435897435898|-216.84981684981685|-195.6043956043956]
450,2026-01-31 19:26:49,[-213.1868131868132|-213.91941391941393|-208.7912087912088|-217.58241758241758|-213.91941391941393]
451,2026-01-31 19:26:49,[-206.5934065934066|-202.1978021978022|-199.26739926739927|-201.46520146520146|-194.87179487179486]
452,2026-01-31 19:26:49,[-197.06959706959708|-188.2783882783883|-183.88278388278388|-221.24542124542126|-182.41758241758242]
453,2026-01-31 19:26:49,[-190.47619047619048|-189.74358974358975|-182.41758241758242|-191.94139194139194|-193.4065934065934]
454,2026-01-31 19:26:49,[-194.13919413919413|-194.13919413919413|-189.01098901098902|-192.67399267399267|-189.01098901098902]
455,2026-01-31 19:26:49,[-189.01098901098902|-183.15018315018315|-178.02197802197801|-214.65201465201466|-173.62637362637363]
456,2026-01-31 19:26:49,[-170.6959706959707|-170.6959706959707|-166.3003663003663|-164.10256410256412|-166.3003663003663]
457,2026-01-31 19:26:49,[-160.43956043956044|-166.3003663003663|-156.7765567765568|-160.43956043956044|-150.1831501831502]
458,2026-01-31 19:26:49,[-150.1831501831502|-146.5201465201465|-143.5897435897436|-178.02197802197801|-133.33333333333334]
459,2026-01-31 19:26:49,[-134.06593406593407|-134.7985347985348|-132.6007326007326|-136.996336996337|-132.6007326007326]
460,2026-01-31 19:26:49,[-126.00732600732601|-125.27472527472527|-120.14652014652015|-127.47252747252747|-123.07692307692308]
461,2026-01-31 19:26:50,[-117.94871794871794|-118.68131868131869|-113.55311355311355|-147.25274725274724|-107.6923076923077]
462,2026-01-31 19:26:50,[-110.62271062271063|-110.62271062271063|-106.22710622710623|-101.83150183150182|-97.43589743589743]
463,2026-01-31 19:26:50,[-98.16849816849818|-103.2967032967033|-108.42490842490842|-106.22710622710623|-98.16849816849818]
464,2026-01-31 19:26:50,[-101.83150183150182|-103.2967032967033|-106.22710622710623|-132.6007326007326|-62.27106227106227]
465,2026-01-31 19:26:50,[-52.014652014652015|-64.46886446886447|-71.06227106227107|-95.97069597069597|-99.63369963369964]
466,2026-01-31 19:26:50,[-93.77289377289377|-87.91208791208791|-84.24908424908425|-96.7032967032967|-86.44688644688645]
467,2026-01-31 19:26:50,[-90.10989010989012|-97.43589743589743|-3.663003663003663|290.84249084249086|621.978021978022]
468,2026-01-31 19:26:50,[442.4908424908425|-41.75824175824176|-415.38461538461536|-254.94505494505495|-87.17948717948718]
469,2026-01-31 19:26:50,[-71.06227106227107|-64.46886446886447|-56.41025641025641|-63.73626373626374|-56.41025641025641]
470,2026-01-31 19:26:50,[-50.54945054945055|-40.29304029304029|-31.501831501831504|-68.13186813186813|-27.106227106227106]
471,2026-01-31 19:26:50,[-19.047619047619047|-9.523809523809524|6.593406593406593|5.128205128205129|20.512820512820515]
472,2026-01-31 19:26:50,[43.223443223443226|65.93406593406593|87.17948717948718|108.42490842490842|136.996336996337]
473,2026-01-31 19:26:50,[169.23076923076923|183.88278388278388|207.32600732600733|191.2087912087912|214.65201465201466]
474,2026-01-31 19:26:50,[186.08058608058607|158.97435897435898|120.87912087912088|66.66666666666667|-0.7326007326007326]
475,2026-01-31 19:26:50,[-56.41025641025641|-107.6923076923077|-142.85714285714286|-170.6959706959707|-191.2087912087912]
476,2026-01-31 19:26:50,[-199.26739926739927|-204.3956043956044|-207.32600732600733|-252.01465201465203|-203.66300366300365]
477,2026-01-31 19:26:50,[-205.86080586080587|-206.5934065934066|-194.87179487179486|-195.6043956043956|-191.2087912087912]
478,2026-01-31 19:26:50,[-173.62637362637363|-179.48717948717947|-176.55677655677655|-188.2783882783883|-181.6849816849817]
479,2026-01-31 19:26:50,[-183.88278388278388|-181.6849816849817|-188.2783882783883|-213.1868131868132|-172.8937728937729]
480,2026-01-31 19:26:50,[-182.41758241758242|-183.88278388278388|-182.41758241758242|-180.21978021978023|-182.41758241758242]
481,2026-01-31 19:26:50,[-178.02197802197801|-178.02197802197801|-180.21978021978023|-183.15018315018315|-179.48717948717947]
482,2026-01-31 19:26:50,[-179.48717948717947|-177.28937728937728|-173.62637362637363|-204.3956043956044|-164.83516483516485]
483,2026-01-31 19:26:50,[-166.3003663003663|-160.43956043956044|-157.50915750915752|-164.10256410256412|-161.17216117216117]
484,2026-01-31 19:26:50,[-154.57875457875457|-149.45054945054946|-145.78754578754578|-148.71794871794873|-144.32234432234432]
485,2026-01-31 19:26:50,[-144.32234432234432|-141.3919413919414|-131.86813186813185|-166.3003663003663|-125.27472527472527]
486,2026-01-31 19:26:51,[-129.67032967032966|-125.27472527472527|-122.34432234432235|-123.07692307692308|-113.55311355311355]
487,2026-01-31 19:26:51,[-112.08791208791209|-109.89010989010988|-105.49450549450549|-112.08791208791209|-113.55311355311355]
488,2026-01-31 19:26:51,[-115.01831501831502|-115.01831501831502|-112.08791208791209|-147.25274725274724|-107.6923076923077]
489,2026-01-31 19:26:51,[-117.94871794871794|-122.34432234432235|-112.08791208791209|-84.24908424908425|-75.45787545787546]
490,2026-01-31 19:26:51,[-80.58608058608058|-97.43589743589743|-110.62271062271063|-115.01831501831502|-106.22710622710623]
491,2026-01-31 19:26:51,[-109.15750915750915|-113.55311355311355|-113.55311355311355|-148.71794871794873|-112.08791208791209]
492,2026-01-31 19:26:51,[-85.71428571428571|76.19047619047619|440.2930402930403|606.5934065934066|238.0952380952381]
493,2026-01-31 19:26:51,[-267.3992673992674|-430.03663003663|-188.2783882783883|-88.64468864468864|-75.45787545787546]
494,2026-01-31 19:26:51,[-73.99267399267399|-64.46886446886447|-53.47985347985348|-89.37728937728937|-47.61904761904762]
495,2026-01-31 19:26:51,[-39.56043956043956|-32.967032967032964|-27.106227106227106|-24.175824175824175|-17.582417582417584]
496,2026-01-31 19:26:51,[-9.523809523809524|3.663003663003663|21.245421245421245|35.16483516483517|54.21245421245421]
497,2026-01-31 19:26:51,[73.26007326007326|98.9010989010989|127.47252747252747|128.2051282051282|192.67399267399267]
498,2026-01-31 19:26:51,[207.32600732600733|216.84981684981685|221.97802197802199|205.12820512820514|186.8131868131868]
499,2026-01-31 19:26:51,[150.91575091575092|99.63369963369964|43.223443223443226|-28.571428571428573|-82.78388278388279]
500,2026-01-31 19:26:51,[-126.73992673992674|-164.83516483516485|-183.88278388278388|-238.0952380952381|-207.32600732600733]
501,2026-01-31 19:26:51,[-216.11721611721612|-219.04761904761904|-216.84981684981685|-219.04761904761904|-212.45421245421247]
502,2026-01-31 19:26:51,[-205.86080586080587|-202.93040293040292|-196.33699633699635|-197.06959706959708|-191.2087912087912]
503,2026-01-31 19:26:51,[-188.2783882783883|-189.74358974358975|-179.48717948717947|-220.51282051282053|-173.62637362637363]
504,2026-01-31 19:26:51,[-182.41758241758242|-189.74358974358975|-188.2783882783883|-192.67399267399267|-182.41758241758242]
505,2026-01-31 19:26:51,[-180.95238095238096|-182.41758241758242|-178.02197802197801|-182.41758241758242|-180.21978021978023]
506,2026-01-31 19:26:51,[-173.62637362637363|-177.28937728937728|-179.48717948717947|-213.1868131868132|-169.96336996336996]
507,2026-01-31 19:26:51,[-167.76556776556777|-167.03296703296704|-161.17216117216117|-167.03296703296704|-157.50915750915752]
508,2026-01-31 19:26:51,[-156.7765567765568|-153.1135531135531|-146.5201465201465|-155.3113553113553|-152.38095238095238]
509,2026-01-31 19:26:51,[-152.38095238095238|-153.1135531135531|-147.25274725274724|-188.2783882783883|-136.996336996337]
510,2026-01-31 19:26:51,[-145.78754578754578|-145.78754578754578|-136.26373626373626|-134.7985347985348|-131.13553113553112]
511,2026-01-31 19:26:51,[-131.13553113553112|-135.53113553113553|-135.53113553113553|-136.996336996337|-130.4029304029304]
512,2026-01-31 19:26:52,[-126.73992673992674|-121.6117216117216|-120.87912087912088|-164.83516483516485|-122.34432234432235]
513,2026-01-31 19:26:52,[-126.73992673992674|-101.83150183150182|-81.31868131868131|-84.24908424908425|-87.17948717948718]
514,2026-01-31 19:26:52,[-98.9010989010989|-113.55311355311355|-109.15750915750915|-112.08791208791209|-107.6923076923077]
515,2026-01-31 19:26:52,[-107.6923076923077|-106.22710622710623|-107.6923076923077|-115.01831501831502|-13.91941391941392]
516,2026-01-31 19:26:52,[255.67765567765568|596.3369963369963|482.7838827838828|-9.523809523809524|-430.7692307692308]
517,2026-01-31 19:26:52,[-336.2637362637363|-131.13553113553112|-75.45787545787546|-73.99267399267399|-62.27106227106227]
518,2026-01-31 19:26:52,[-53.47985347985348|-53.47985347985348|-41.02564102564103|-73.99267399267399|-31.501831501831504]
519,2026-01-31 19:26:52,[-29.304029304029303|-19.047619047619047|-16.84981684981685|-8.791208791208792|20.512820512820515]
520,2026-01-31 19:26:52,[21.245421245421245|26.373626373626372|65.2014652014652|88.64468864468864|107.6923076923077]
521,2026-01-31 19:26:52,[126.73992673992674|158.97435897435898|192.67399267399267|195.6043956043956|240.2930402930403]
522,2026-01-31 19:26:52,[238.0952380952381|232.96703296703296|218.3150183150183|180.95238095238096|136.996336996337]
523,2026-01-31 19:26:52,[76.92307692307692|-5.128205128205129|-51.282051282051285|-115.01831501831502|-145.78754578754578]
524,2026-01-31 19:26:52,[-170.6959706959707|-191.94139194139194|-205.12820512820514|-261.53846153846155|-204.3956043956044]
525,2026-01-31 19:26:52,[-205.86080586080587|-202.93040293040292|-202.93040293040292|-195.6043956043956|-196.33699633699635]
526,2026-01-31 19:26:52,[-189.74358974358975|-181.6849816849817|-180.95238095238096|-191.2087912087912|-176.55677655677655]
527,2026-01-31 19:26:52,[-179.48717948717947|-174.35897435897436|-169.23076923076923|-188.2783882783883|-166.3003663003663]
528,2026-01-31 19:26:52,[-179.48717948717947|-179.48717948717947|-179.48717948717947|-191.2087912087912|-182.41758241758242]
529,2026-01-31 19:26:52,[-182.41758241758242|-180.95238095238096|-172.16117216117217|-178.02197802197801|-168.4981684981685]
530,2026-01-31 19:26:52,[-170.6959706959707|-172.16117216117217|-165.56776556776558|-207.32600732600733|-156.04395604395606]
531,2026-01-31 19:26:52,[-161.9047619047619|-158.97435897435898|-153.1135531135531|-154.57875457875457|-145.78754578754578]
532,2026-01-31 19:26:52,[-145.78754578754578|-142.85714285714286|-134.06593406593407|-145.78754578754578|-135.53113553113553]
533,2026-01-31 19:26:52,[-141.3919413919414|-141.3919413919414|-136.996336996337|-172.8937728937729|-125.27472527472527]
534,2026-01-31 19:26:52,[-125.27472527472527|-126.00732600732601|-126.73992673992674|-129.67032967032966|-121.6117216117216]
535,2026-01-31 19:26:52,[-121.6117216117216|-122.34432234432235|-125.27472527472527|-122.34432234432235|-95.97069597069597]
536,2026-01-31 19:26:53,[-95.97069597069597|-98.9010989010989|-108.42490842490842|-169.23076923076923|-129.67032967032966]
537,2026-01-31 19:26:53,[-132.6007326007326|-127.47252747252747|-122.34432234432235|-123.80952380952381|-113.55311355311355]
538,2026-01-31 19:26:53,[-120.87912087912088|-84.24908424908425|90.10989010989012|440.2930402930403|615.3846153846154]
539,2026-01-31 19:26:53,[241.75824175824175|-286.4468864468864|-469.5970695970696|-260.0732600732601|-100.36630036630036]
540,2026-01-31 19:26:53,[-82.78388278388279|-73.99267399267399|-64.46886446886447|-61.53846153846154|-54.94505494505494]
541,2026-01-31 19:26:53,[-50.54945054945055|-43.223443223443226|-37.362637362637365|-37.362637362637365|-18.315018315018314]
