Packet_Number,Timestamp,Data
1,2026-02-27 00:09:47,106687
2,2026-02-27 00:09:47,106681
3,2026-02-27 00:09:47,106680
4,2026-02-27 00:09:47,106703
5,2026-02-27 00:09:47,106713
6,2026-02-27 00:09:47,106710
7,2026-02-27 00:09:47,106713
8,2026-02-27 00:09:47,106720
9,2026-02-27 00:09:47,106716
10,2026-02-27 00:09:47,106772
11,2026-02-27 00:09:47,106821
12,2026-02-27 00:09:47,106877
13,2026-02-27 00:09:47,106890
14,2026-02-27 00:09:47,106930
15,2026-02-27 00:09:47,106946
16,2026-02-27 00:09:47,106995
17,2026-02-27 00:09:47,107035
18,2026-02-27 00:09:47,107072
19,2026-02-27 00:09:47,107099
20,2026-02-27 00:09:47,107150
21,2026-02-27 00:09:47,107151
22,2026-02-27 00:09:47,107184
23,2026-02-27 00:09:47,107126
24,2026-02-27 00:09:48,106954
25,2026-02-27 00:09:48,106860
26,2026-02-27 00:09:48,106836
27,2026-02-27 00:09:48,106851
28,2026-02-27 00:09:48,106885
29,2026-02-27 00:09:48,106926
30,2026-02-27 00:09:48,106924
31,2026-02-27 00:09:48,106908
32,2026-02-27 00:09:48,106915
33,2026-02-27 00:09:48,106926
34,2026-02-27 00:09:48,106978
35,2026-02-27 00:09:48,107023
36,2026-02-27 00:09:48,107051
37,2026-02-27 00:09:48,107057
38,2026-02-27 00:09:48,107046
39,2026-02-27 00:09:48,107062
40,2026-02-27 00:09:48,107135
41,2026-02-27 00:09:48,107174
42,2026-02-27 00:09:48,107256
43,2026-02-27 00:09:48,107312
44,2026-02-27 00:09:48,107332
45,2026-02-27 00:09:48,107371
46,2026-02-27 00:09:48,107305
47,2026-02-27 00:09:48,107111
48,2026-02-27 00:09:48,107022
49,2026-02-27 00:09:49,107008
50,2026-02-27 00:09:49,107010
51,2026-02-27 00:09:49,107028
52,2026-02-27 00:09:49,107058
53,2026-02-27 00:09:49,107064
54,2026-02-27 00:09:49,107060
55,2026-02-27 00:09:49,107075
56,2026-02-27 00:09:49,107062
57,2026-02-27 00:09:49,107101
58,2026-02-27 00:09:49,107137
59,2026-02-27 00:09:49,107177
60,2026-02-27 00:09:49,107208
61,2026-02-27 00:09:49,107250
62,2026-02-27 00:09:49,107267
63,2026-02-27 00:09:49,107317
64,2026-02-27 00:09:49,107359
65,2026-02-27 00:09:49,107380
66,2026-02-27 00:09:49,107389
67,2026-02-27 00:09:49,107427
68,2026-02-27 00:09:49,107393
69,2026-02-27 00:09:49,107393
70,2026-02-27 00:09:49,107236
71,2026-02-27 00:09:49,107096
72,2026-02-27 00:09:49,107039
73,2026-02-27 00:09:49,107106
74,2026-02-27 00:09:49,107151
75,2026-02-27 00:09:50,107166
76,2026-02-27 00:09:50,107199
77,2026-02-27 00:09:50,107177
78,2026-02-27 00:09:50,107128
79,2026-02-27 00:09:50,107101
80,2026-02-27 00:09:50,107101
81,2026-02-27 00:09:50,107104
82,2026-02-27 00:09:50,107167
83,2026-02-27 00:09:50,107196
84,2026-02-27 00:09:50,107265
85,2026-02-27 00:09:50,107318
86,2026-02-27 00:09:50,107378
87,2026-02-27 00:09:50,107414
88,2026-02-27 00:09:50,107496
89,2026-02-27 00:09:50,107541
90,2026-02-27 00:09:50,107594
91,2026-02-27 00:09:50,107648
92,2026-02-27 00:09:50,107588
93,2026-02-27 00:09:50,107315
94,2026-02-27 00:09:50,107194
95,2026-02-27 00:09:50,107177
96,2026-02-27 00:09:50,107210
97,2026-02-27 00:09:50,107225
98,2026-02-27 00:09:50,107235
99,2026-02-27 00:09:51,107203
100,2026-02-27 00:09:51,107200
101,2026-02-27 00:09:51,107204
102,2026-02-27 00:09:51,107224
103,2026-02-27 00:09:51,107283
104,2026-02-27 00:09:51,107301
105,2026-02-27 00:09:51,107289
106,2026-02-27 00:09:51,107320
107,2026-02-27 00:09:51,107325
108,2026-02-27 00:09:51,107338
109,2026-02-27 00:09:51,107364
110,2026-02-27 00:09:51,107384
111,2026-02-27 00:09:51,107396
112,2026-02-27 00:09:51,107434
113,2026-02-27 00:09:51,107407
114,2026-02-27 00:09:51,107232
115,2026-02-27 00:09:51,107086
116,2026-02-27 00:09:51,107066
117,2026-02-27 00:09:51,107050
118,2026-02-27 00:09:51,107091
119,2026-02-27 00:09:51,107121
120,2026-02-27 00:09:51,107125
121,2026-02-27 00:09:51,107087
122,2026-02-27 00:09:51,107058
123,2026-02-27 00:09:51,107038
124,2026-02-27 00:09:52,107097
125,2026-02-27 00:09:52,107127
126,2026-02-27 00:09:52,107159
127,2026-02-27 00:09:52,107163
128,2026-02-27 00:09:52,107195
129,2026-02-27 00:09:52,107191
130,2026-02-27 00:09:52,107263
131,2026-02-27 00:09:52,107288
132,2026-02-27 00:09:52,107317
133,2026-02-27 00:09:52,107342
134,2026-02-27 00:09:52,107357
135,2026-02-27 00:09:52,107128
136,2026-02-27 00:09:52,106946
137,2026-02-27 00:09:52,106856
138,2026-02-27 00:09:52,106843
139,2026-02-27 00:09:52,106839
140,2026-02-27 00:09:52,106828
141,2026-02-27 00:09:52,106803
142,2026-02-27 00:09:52,106806
143,2026-02-27 00:09:52,106800
144,2026-02-27 00:09:52,106798
145,2026-02-27 00:09:52,106829
146,2026-02-27 00:09:52,106865
147,2026-02-27 00:09:52,106901
148,2026-02-27 00:09:52,106949
149,2026-02-27 00:09:52,106994
150,2026-02-27 00:09:53,107051
151,2026-02-27 00:09:53,107089
152,2026-02-27 00:09:53,107116
153,2026-02-27 00:09:53,107119
154,2026-02-27 00:09:53,107164
155,2026-02-27 00:09:53,107189
156,2026-02-27 00:09:53,107191
157,2026-02-27 00:09:53,107021
158,2026-02-27 00:09:53,106785
159,2026-02-27 00:09:53,106645
160,2026-02-27 00:09:53,106624
161,2026-02-27 00:09:53,106629
162,2026-02-27 00:09:53,106612
163,2026-02-27 00:09:53,106628
164,2026-02-27 00:09:53,106624
165,2026-02-27 00:09:53,106579
166,2026-02-27 00:09:53,106589
167,2026-02-27 00:09:53,106608
168,2026-02-27 00:09:53,106635
169,2026-02-27 00:09:53,106676
170,2026-02-27 00:09:53,106695
171,2026-02-27 00:09:53,106731
172,2026-02-27 00:09:53,106756
173,2026-02-27 00:09:53,106779
174,2026-02-27 00:09:53,106809
175,2026-02-27 00:09:54,106854
176,2026-02-27 00:09:54,106879
177,2026-02-27 00:09:54,106919
178,2026-02-27 00:09:54,106988
179,2026-02-27 00:09:54,107038
180,2026-02-27 00:09:54,107091
181,2026-02-27 00:09:54,107063
182,2026-02-27 00:09:54,106855
183,2026-02-27 00:09:54,106732
184,2026-02-27 00:09:54,106737
185,2026-02-27 00:09:54,106778
186,2026-02-27 00:09:54,106793
187,2026-02-27 00:09:54,106798
188,2026-02-27 00:09:54,106779
189,2026-02-27 00:09:54,106773
190,2026-02-27 00:09:54,106775
191,2026-02-27 00:09:54,106775
192,2026-02-27 00:09:54,106773
193,2026-02-27 00:09:54,106806
194,2026-02-27 00:09:54,106846
195,2026-02-27 00:09:54,106872
196,2026-02-27 00:09:54,106916
197,2026-02-27 00:09:54,106955
198,2026-02-27 00:09:54,106996
199,2026-02-27 00:09:55,107030
200,2026-02-27 00:09:55,107066
201,2026-02-27 00:09:55,107077
202,2026-02-27 00:09:55,107125
203,2026-02-27 00:09:55,107151
204,2026-02-27 00:09:55,107193
205,2026-02-27 00:09:55,107216
206,2026-02-27 00:09:55,107244
207,2026-02-27 00:09:55,107208
208,2026-02-27 00:09:55,107102
209,2026-02-27 00:09:55,106989
210,2026-02-27 00:09:55,106981
211,2026-02-27 00:09:55,107017
212,2026-02-27 00:09:55,107024
213,2026-02-27 00:09:55,107005
214,2026-02-27 00:09:55,107047
215,2026-02-27 00:09:55,107030
216,2026-02-27 00:09:55,107041
217,2026-02-27 00:09:55,107047
218,2026-02-27 00:09:55,107063
219,2026-02-27 00:09:55,107039
220,2026-02-27 00:09:55,107087
221,2026-02-27 00:09:55,107116
222,2026-02-27 00:09:55,107135
223,2026-02-27 00:09:55,107175
224,2026-02-27 00:09:55,107166
225,2026-02-27 00:09:56,107172
226,2026-02-27 00:09:56,107198
227,2026-02-27 00:09:56,107188
228,2026-02-27 00:09:56,107216
229,2026-02-27 00:09:56,107249
230,2026-02-27 00:09:56,107277
231,2026-02-27 00:09:56,107259
232,2026-02-27 00:09:56,107135
233,2026-02-27 00:09:56,107012
234,2026-02-27 00:09:56,106993
235,2026-02-27 00:09:56,107003
236,2026-02-27 00:09:56,106996
237,2026-02-27 00:09:56,106959
238,2026-02-27 00:09:56,106970
239,2026-02-27 00:09:56,106935
240,2026-02-27 00:09:56,106906
241,2026-02-27 00:09:56,106908
242,2026-02-27 00:09:56,106932
243,2026-02-27 00:09:56,106913
244,2026-02-27 00:09:56,106942
245,2026-02-27 00:09:56,106965
246,2026-02-27 00:09:56,106983
247,2026-02-27 00:09:56,107016
248,2026-02-27 00:09:56,107025
249,2026-02-27 00:09:56,107049
250,2026-02-27 00:09:57,107098
251,2026-02-27 00:09:57,107126
252,2026-02-27 00:09:57,107158
253,2026-02-27 00:09:57,107181
254,2026-02-27 00:09:57,107217
255,2026-02-27 00:09:57,107239
256,2026-02-27 00:09:57,107282
257,2026-02-27 00:09:57,107179
258,2026-02-27 00:09:57,107084
259,2026-02-27 00:09:57,107067
260,2026-02-27 00:09:57,107130
261,2026-02-27 00:09:57,107133
262,2026-02-27 00:09:57,107166
263,2026-02-27 00:09:57,107168
264,2026-02-27 00:09:57,107156
265,2026-02-27 00:09:57,107139
266,2026-02-27 00:09:57,107129
267,2026-02-27 00:09:57,107138
268,2026-02-27 00:09:57,107170
269,2026-02-27 00:09:57,107204
270,2026-02-27 00:09:57,107245
271,2026-02-27 00:09:57,107263
272,2026-02-27 00:09:57,107258
273,2026-02-27 00:09:57,107289
274,2026-02-27 00:09:58,107317
275,2026-02-27 00:09:58,107339
276,2026-02-27 00:09:58,107361
277,2026-02-27 00:09:58,107374
278,2026-02-27 00:09:58,107361
279,2026-02-27 00:09:58,107340
280,2026-02-27 00:09:58,107365
281,2026-02-27 00:09:58,107380
282,2026-02-27 00:09:58,107390
283,2026-02-27 00:09:58,107264
284,2026-02-27 00:09:58,107159
285,2026-02-27 00:09:58,107147
286,2026-02-27 00:09:58,107202
287,2026-02-27 00:09:58,107215
288,2026-02-27 00:09:58,107223
289,2026-02-27 00:09:58,107232
290,2026-02-27 00:09:58,107203
291,2026-02-27 00:09:58,107202
292,2026-02-27 00:09:58,107219
293,2026-02-27 00:09:58,107209
294,2026-02-27 00:09:58,107228
295,2026-02-27 00:09:58,107240
296,2026-02-27 00:09:58,107239
297,2026-02-27 00:09:58,107244
298,2026-02-27 00:09:58,107279
299,2026-02-27 00:09:58,107284
300,2026-02-27 00:09:59,107293
301,2026-02-27 00:09:59,107308
302,2026-02-27 00:09:59,107297
303,2026-02-27 00:09:59,107321
304,2026-02-27 00:09:59,107351
305,2026-02-27 00:09:59,107370
306,2026-02-27 00:09:59,107388
307,2026-02-27 00:09:59,107377
308,2026-02-27 00:09:59,107218
309,2026-02-27 00:09:59,107145
310,2026-02-27 00:09:59,107146
311,2026-02-27 00:09:59,107175
312,2026-02-27 00:09:59,107195
313,2026-02-27 00:09:59,107195
314,2026-02-27 00:09:59,107188
315,2026-02-27 00:09:59,107152
316,2026-02-27 00:09:59,107160
317,2026-02-27 00:09:59,107160
318,2026-02-27 00:09:59,107136
319,2026-02-27 00:09:59,107140
320,2026-02-27 00:09:59,107137
321,2026-02-27 00:09:59,107135
322,2026-02-27 00:09:59,107157
323,2026-02-27 00:09:59,107152
324,2026-02-27 00:09:59,107156
325,2026-02-27 00:10:00,107176
326,2026-02-27 00:10:00,107178
327,2026-02-27 00:10:00,107147
328,2026-02-27 00:10:00,107181
329,2026-02-27 00:10:00,107202
330,2026-02-27 00:10:00,107226
331,2026-02-27 00:10:00,107220
332,2026-02-27 00:10:00,107235
333,2026-02-27 00:10:00,107198
334,2026-02-27 00:10:00,107080
335,2026-02-27 00:10:00,106943
336,2026-02-27 00:10:00,106892
337,2026-02-27 00:10:00,106884
338,2026-02-27 00:10:00,106893
339,2026-02-27 00:10:00,106842
340,2026-02-27 00:10:00,106849
341,2026-02-27 00:10:00,106820
342,2026-02-27 00:10:00,106789
343,2026-02-27 00:10:00,106776
344,2026-02-27 00:10:00,106745
345,2026-02-27 00:10:00,106719
346,2026-02-27 00:10:00,106755
347,2026-02-27 00:10:00,106785
348,2026-02-27 00:10:00,106794
349,2026-02-27 00:10:01,106808
350,2026-02-27 00:10:01,106823
351,2026-02-27 00:10:01,106809
352,2026-02-27 00:10:01,106831
353,2026-02-27 00:10:01,106840
354,2026-02-27 00:10:01,106871
355,2026-02-27 00:10:01,106870
356,2026-02-27 00:10:01,106863
357,2026-02-27 00:10:01,106859
358,2026-02-27 00:10:01,106891
359,2026-02-27 00:10:01,106771
360,2026-02-27 00:10:01,106614
361,2026-02-27 00:10:01,106539
362,2026-02-27 00:10:01,106524
363,2026-02-27 00:10:01,106467
364,2026-02-27 00:10:01,106476
365,2026-02-27 00:10:01,106464
366,2026-02-27 00:10:01,106423
367,2026-02-27 00:10:01,106391
368,2026-02-27 00:10:01,106376
369,2026-02-27 00:10:01,106341
370,2026-02-27 00:10:01,106369
371,2026-02-27 00:10:01,106398
372,2026-02-27 00:10:01,106403
373,2026-02-27 00:10:01,106413
374,2026-02-27 00:10:01,106438
375,2026-02-27 00:10:02,106400
376,2026-02-27 00:10:02,106463
377,2026-02-27 00:10:02,106501
378,2026-02-27 00:10:02,106509
379,2026-02-27 00:10:02,106528
380,2026-02-27 00:10:02,106553
381,2026-02-27 00:10:02,106570
382,2026-02-27 00:10:02,106575
383,2026-02-27 00:10:02,106420
384,2026-02-27 00:10:02,106249
385,2026-02-27 00:10:02,106158
386,2026-02-27 00:10:02,106089
387,2026-02-27 00:10:02,106033
388,2026-02-27 00:10:02,106044
389,2026-02-27 00:10:02,106014
390,2026-02-27 00:10:02,105985
391,2026-02-27 00:10:02,105953
392,2026-02-27 00:10:02,105923
393,2026-02-27 00:10:02,105927
394,2026-02-27 00:10:02,105966
395,2026-02-27 00:10:02,106001
396,2026-02-27 00:10:02,106029
397,2026-02-27 00:10:02,106089
398,2026-02-27 00:10:02,106110
399,2026-02-27 00:10:03,106131
400,2026-02-27 00:10:03,106184
401,2026-02-27 00:10:03,106218
402,2026-02-27 00:10:03,106263
403,2026-02-27 00:10:03,106307
404,2026-02-27 00:10:03,106298
405,2026-02-27 00:10:03,106309
406,2026-02-27 00:10:03,106367
407,2026-02-27 00:10:03,106259
408,2026-02-27 00:10:03,106074
409,2026-02-27 00:10:03,105946
410,2026-02-27 00:10:03,105920
411,2026-02-27 00:10:03,105907
412,2026-02-27 00:10:03,105898
413,2026-02-27 00:10:03,105896
414,2026-02-27 00:10:03,105895
415,2026-02-27 00:10:03,105876
416,2026-02-27 00:10:03,105861
417,2026-02-27 00:10:03,105872
418,2026-02-27 00:10:03,105909
419,2026-02-27 00:10:03,105928
420,2026-02-27 00:10:03,105952
421,2026-02-27 00:10:03,105980
422,2026-02-27 00:10:03,105971
423,2026-02-27 00:10:03,106010
424,2026-02-27 00:10:04,106031
425,2026-02-27 00:10:04,106055
426,2026-02-27 00:10:04,106091
427,2026-02-27 00:10:04,106117
428,2026-02-27 00:10:04,106094
429,2026-02-27 00:10:04,106125
430,2026-02-27 00:10:04,106160
431,2026-02-27 00:10:04,106141
432,2026-02-27 00:10:04,105986
433,2026-02-27 00:10:04,105785
434,2026-02-27 00:10:04,105785
435,2026-02-27 00:10:04,105626
436,2026-02-27 00:10:04,105627
437,2026-02-27 00:10:04,105620
438,2026-02-27 00:10:04,105596
439,2026-02-27 00:10:04,105549
440,2026-02-27 00:10:04,105487
441,2026-02-27 00:10:04,105396
442,2026-02-27 00:10:04,105415
443,2026-02-27 00:10:04,105435
444,2026-02-27 00:10:04,105450
445,2026-02-27 00:10:04,105465
446,2026-02-27 00:10:04,105518
447,2026-02-27 00:10:04,105539
448,2026-02-27 00:10:04,105568
449,2026-02-27 00:10:04,105610
450,2026-02-27 00:10:05,105645
451,2026-02-27 00:10:05,105677
452,2026-02-27 00:10:05,105727
453,2026-02-27 00:10:05,105724
454,2026-02-27 00:10:05,105770
455,2026-02-27 00:10:05,105825
456,2026-02-27 00:10:05,105792
457,2026-02-27 00:10:05,105617
458,2026-02-27 00:10:05,105447
459,2026-02-27 00:10:05,105347
460,2026-02-27 00:10:05,105355
461,2026-02-27 00:10:05,105330
462,2026-02-27 00:10:05,105306
463,2026-02-27 00:10:05,105303
464,2026-02-27 00:10:05,105312
465,2026-02-27 00:10:05,105277
466,2026-02-27 00:10:05,105295
467,2026-02-27 00:10:05,105329
468,2026-02-27 00:10:05,105402
469,2026-02-27 00:10:05,105456
470,2026-02-27 00:10:05,105516
471,2026-02-27 00:10:05,105554
472,2026-02-27 00:10:05,105605
473,2026-02-27 00:10:05,105643
474,2026-02-27 00:10:06,105682
475,2026-02-27 00:10:06,105709
476,2026-02-27 00:10:06,105751
477,2026-02-27 00:10:06,105755
478,2026-02-27 00:10:06,105804
479,2026-02-27 00:10:06,105839
480,2026-02-27 00:10:06,105888
481,2026-02-27 00:10:06,105962
482,2026-02-27 00:10:06,106032
483,2026-02-27 00:10:06,106003
484,2026-02-27 00:10:06,105872
485,2026-02-27 00:10:06,105689
486,2026-02-27 00:10:06,105635
487,2026-02-27 00:10:06,105619
488,2026-02-27 00:10:06,105581
489,2026-02-27 00:10:06,105515
490,2026-02-27 00:10:06,105534
491,2026-02-27 00:10:06,105523
492,2026-02-27 00:10:06,105528
493,2026-02-27 00:10:06,105552
494,2026-02-27 00:10:06,105605
495,2026-02-27 00:10:06,105611
496,2026-02-27 00:10:06,105682
497,2026-02-27 00:10:06,105740
498,2026-02-27 00:10:06,105766
499,2026-02-27 00:10:07,105810
500,2026-02-27 00:10:07,105827
501,2026-02-27 00:10:07,105841
502,2026-02-27 00:10:07,105884
503,2026-02-27 00:10:07,105912
504,2026-02-27 00:10:07,105976
505,2026-02-27 00:10:07,106042
506,2026-02-27 00:10:07,106080
507,2026-02-27 00:10:07,106088
508,2026-02-27 00:10:07,106148
509,2026-02-27 00:10:07,106152
510,2026-02-27 00:10:07,106164
511,2026-02-27 00:10:07,106184
512,2026-02-27 00:10:07,106202
513,2026-02-27 00:10:07,106103
514,2026-02-27 00:10:07,105903
515,2026-02-27 00:10:07,105744
516,2026-02-27 00:10:07,105686
517,2026-02-27 00:10:07,105672
518,2026-02-27 00:10:07,105638
519,2026-02-27 00:10:07,105601
520,2026-02-27 00:10:07,105595
521,2026-02-27 00:10:07,105610
522,2026-02-27 00:10:07,105626
523,2026-02-27 00:10:07,105658
524,2026-02-27 00:10:07,105672
525,2026-02-27 00:10:08,105680
526,2026-02-27 00:10:08,105730
527,2026-02-27 00:10:08,105751
528,2026-02-27 00:10:08,105751
529,2026-02-27 00:10:08,105786
530,2026-02-27 00:10:08,105788
531,2026-02-27 00:10:08,105819
532,2026-02-27 00:10:08,105875
533,2026-02-27 00:10:08,105912
534,2026-02-27 00:10:08,105911
535,2026-02-27 00:10:08,105966
536,2026-02-27 00:10:08,105958
537,2026-02-27 00:10:08,105978
538,2026-02-27 00:10:08,106042
539,2026-02-27 00:10:08,106085
540,2026-02-27 00:10:08,106003
541,2026-02-27 00:10:08,105801
542,2026-02-27 00:10:08,105603
543,2026-02-27 00:10:08,105490
544,2026-02-27 00:10:08,105425
545,2026-02-27 00:10:08,105385
546,2026-02-27 00:10:08,105395
547,2026-02-27 00:10:08,105418
548,2026-02-27 00:10:08,105415
549,2026-02-27 00:10:08,105466
550,2026-02-27 00:10:09,105491
551,2026-02-27 00:10:09,105525
552,2026-02-27 00:10:09,105574
553,2026-02-27 00:10:09,105628
554,2026-02-27 00:10:09,105637
555,2026-02-27 00:10:09,105664
556,2026-02-27 00:10:09,105664
557,2026-02-27 00:10:09,105722
558,2026-02-27 00:10:09,105757
559,2026-02-27 00:10:09,105800
560,2026-02-27 00:10:09,105833
561,2026-02-27 00:10:09,105843
562,2026-02-27 00:10:09,105876
563,2026-02-27 00:10:09,105929
564,2026-02-27 00:10:09,105974
565,2026-02-27 00:10:09,106012
566,2026-02-27 00:10:09,106045
567,2026-02-27 00:10:09,106055
568,2026-02-27 00:10:09,105991
569,2026-02-27 00:10:09,105773
570,2026-02-27 00:10:09,105621
571,2026-02-27 00:10:09,105571
572,2026-02-27 00:10:09,105551
573,2026-02-27 00:10:09,105503
574,2026-02-27 00:10:10,105532
575,2026-02-27 00:10:10,105532
576,2026-02-27 00:10:10,105489
577,2026-02-27 00:10:10,105489
578,2026-02-27 00:10:10,105492
579,2026-02-27 00:10:10,105443
580,2026-02-27 00:10:10,105399
581,2026-02-27 00:10:10,105380
582,2026-02-27 00:10:10,105439
583,2026-02-27 00:10:10,105447
584,2026-02-27 00:10:10,105444
585,2026-02-27 00:10:10,105447
586,2026-02-27 00:10:10,105515
587,2026-02-27 00:10:10,105524
588,2026-02-27 00:10:10,105536
589,2026-02-27 00:10:10,105578
590,2026-02-27 00:10:10,105630
591,2026-02-27 00:10:10,105618
592,2026-02-27 00:10:10,105692
593,2026-02-27 00:10:10,105777
594,2026-02-27 00:10:10,105810
595,2026-02-27 00:10:10,105658
596,2026-02-27 00:10:10,105516
597,2026-02-27 00:10:10,105428
598,2026-02-27 00:10:10,105458
599,2026-02-27 00:10:10,105470
600,2026-02-27 00:10:11,105477
601,2026-02-27 00:10:11,105463
602,2026-02-27 00:10:11,105443
603,2026-02-27 00:10:11,105385
604,2026-02-27 00:10:11,105400
605,2026-02-27 00:10:11,105418
606,2026-02-27 00:10:11,105454
607,2026-02-27 00:10:11,105477
608,2026-02-27 00:10:11,105492
609,2026-02-27 00:10:11,105467
610,2026-02-27 00:10:11,105526
611,2026-02-27 00:10:11,105547
612,2026-02-27 00:10:11,105559
613,2026-02-27 00:10:11,105587
614,2026-02-27 00:10:11,105619
615,2026-02-27 00:10:11,105619
616,2026-02-27 00:10:11,105694
617,2026-02-27 00:10:11,105751
618,2026-02-27 00:10:11,105779
619,2026-02-27 00:10:11,105675
620,2026-02-27 00:10:11,105469
621,2026-02-27 00:10:11,105256
622,2026-02-27 00:10:11,105247
623,2026-02-27 00:10:12,105239
624,2026-02-27 00:10:12,105221
625,2026-02-27 00:10:12,105219
626,2026-02-27 00:10:12,105234
627,2026-02-27 00:10:12,105201
628,2026-02-27 00:10:12,105225
629,2026-02-27 00:10:12,105251
630,2026-02-27 00:10:12,105277
631,2026-02-27 00:10:12,105317
632,2026-02-27 00:10:12,105344
633,2026-02-27 00:10:12,105344
634,2026-02-27 00:10:12,105394
635,2026-02-27 00:10:12,105436
636,2026-02-27 00:10:12,105470
637,2026-02-27 00:10:12,105484
638,2026-02-27 00:10:12,105541
639,2026-02-27 00:10:12,105576
640,2026-02-27 00:10:12,105628
641,2026-02-27 00:10:12,105665
642,2026-02-27 00:10:12,105709
643,2026-02-27 00:10:12,105697
644,2026-02-27 00:10:12,105466
645,2026-02-27 00:10:12,105214
646,2026-02-27 00:10:12,105127
647,2026-02-27 00:10:12,105130
648,2026-02-27 00:10:12,105108
649,2026-02-27 00:10:13,105074
650,2026-02-27 00:10:13,105058
651,2026-02-27 00:10:13,105069
652,2026-02-27 00:10:13,105061
653,2026-02-27 00:10:13,105049
654,2026-02-27 00:10:13,105071
655,2026-02-27 00:10:13,105104
656,2026-02-27 00:10:13,105128
657,2026-02-27 00:10:13,105144
658,2026-02-27 00:10:13,105173
659,2026-02-27 00:10:13,105199
660,2026-02-27 00:10:13,105204
661,2026-02-27 00:10:13,105220
662,2026-02-27 00:10:13,105245
663,2026-02-27 00:10:13,105274
664,2026-02-27 00:10:13,105260
665,2026-02-27 00:10:13,105282
666,2026-02-27 00:10:13,105286
667,2026-02-27 00:10:13,105322
668,2026-02-27 00:10:13,105249
669,2026-02-27 00:10:13,104995
670,2026-02-27 00:10:13,104849
671,2026-02-27 00:10:13,104811
672,2026-02-27 00:10:13,104816
673,2026-02-27 00:10:13,104806
674,2026-02-27 00:10:13,104807
675,2026-02-27 00:10:14,104837
676,2026-02-27 00:10:14,104871
677,2026-02-27 00:10:14,104819
678,2026-02-27 00:10:14,104819
679,2026-02-27 00:10:14,104817
680,2026-02-27 00:10:14,104881
681,2026-02-27 00:10:14,104889
682,2026-02-27 00:10:14,104922
683,2026-02-27 00:10:14,104986
684,2026-02-27 00:10:14,105016
685,2026-02-27 00:10:14,105048
686,2026-02-27 00:10:14,105072
687,2026-02-27 00:10:14,105102
688,2026-02-27 00:10:14,105163
689,2026-02-27 00:10:14,105198
690,2026-02-27 00:10:14,105208
691,2026-02-27 00:10:14,105239
692,2026-02-27 00:10:14,105244
693,2026-02-27 00:10:14,105024
694,2026-02-27 00:10:14,104817
695,2026-02-27 00:10:14,104704
696,2026-02-27 00:10:14,104721
697,2026-02-27 00:10:14,104718
698,2026-02-27 00:10:14,104700
699,2026-02-27 00:10:15,104683
700,2026-02-27 00:10:15,104711
701,2026-02-27 00:10:15,104714
702,2026-02-27 00:10:15,104712
703,2026-02-27 00:10:15,104762
704,2026-02-27 00:10:15,104822
705,2026-02-27 00:10:15,104833
706,2026-02-27 00:10:15,104905
707,2026-02-27 00:10:15,104948
708,2026-02-27 00:10:15,104980
709,2026-02-27 00:10:15,105000
710,2026-02-27 00:10:15,105045
711,2026-02-27 00:10:15,105047
712,2026-02-27 00:10:15,105113
713,2026-02-27 00:10:15,105159
714,2026-02-27 00:10:15,105166
715,2026-02-27 00:10:15,105176
716,2026-02-27 00:10:15,105240
717,2026-02-27 00:10:15,105215
718,2026-02-27 00:10:15,105012
719,2026-02-27 00:10:15,104749
720,2026-02-27 00:10:15,104636
721,2026-02-27 00:10:15,104603
722,2026-02-27 00:10:15,104588
723,2026-02-27 00:10:15,104541
724,2026-02-27 00:10:16,104556
725,2026-02-27 00:10:16,104581
726,2026-02-27 00:10:16,104583
727,2026-02-27 00:10:16,104564
728,2026-02-27 00:10:16,104590
729,2026-02-27 00:10:16,104631
730,2026-02-27 00:10:16,104711
731,2026-02-27 00:10:16,104750
732,2026-02-27 00:10:16,104790
733,2026-02-27 00:10:16,104853
734,2026-02-27 00:10:16,104869
735,2026-02-27 00:10:16,104848
736,2026-02-27 00:10:16,104934
737,2026-02-27 00:10:16,104974
738,2026-02-27 00:10:16,104983
739,2026-02-27 00:10:16,104992
740,2026-02-27 00:10:16,105037
741,2026-02-27 00:10:16,105040
742,2026-02-27 00:10:16,105061
743,2026-02-27 00:10:16,105002
744,2026-02-27 00:10:16,104927
745,2026-02-27 00:10:16,104795
746,2026-02-27 00:10:16,104541
747,2026-02-27 00:10:16,104314
748,2026-02-27 00:10:16,104264
749,2026-02-27 00:10:16,104322
750,2026-02-27 00:10:17,104317
751,2026-02-27 00:10:17,104302
752,2026-02-27 00:10:17,104339
753,2026-02-27 00:10:17,104323
754,2026-02-27 00:10:17,104352
755,2026-02-27 00:10:17,104395
756,2026-02-27 00:10:17,104428
757,2026-02-27 00:10:17,104499
758,2026-02-27 00:10:17,104552
759,2026-02-27 00:10:17,104556
760,2026-02-27 00:10:17,104597
761,2026-02-27 00:10:17,104648
762,2026-02-27 00:10:17,104698
763,2026-02-27 00:10:17,104747
764,2026-02-27 00:10:17,104815
765,2026-02-27 00:10:17,104840
766,2026-02-27 00:10:17,104930
767,2026-02-27 00:10:17,104979
768,2026-02-27 00:10:17,105042
769,2026-02-27 00:10:17,105095
770,2026-02-27 00:10:17,105114
771,2026-02-27 00:10:17,105023
772,2026-02-27 00:10:17,104807
773,2026-02-27 00:10:17,104599
774,2026-02-27 00:10:18,104548
775,2026-02-27 00:10:18,104542
776,2026-02-27 00:10:18,104506
777,2026-02-27 00:10:18,104505
778,2026-02-27 00:10:18,104512
779,2026-02-27 00:10:18,104508
780,2026-02-27 00:10:18,104530
781,2026-02-27 00:10:18,104555
782,2026-02-27 00:10:18,104561
783,2026-02-27 00:10:18,104621
784,2026-02-27 00:10:18,104706
785,2026-02-27 00:10:18,104762
786,2026-02-27 00:10:18,104785
787,2026-02-27 00:10:18,104808
788,2026-02-27 00:10:18,104846
789,2026-02-27 00:10:18,104887
790,2026-02-27 00:10:18,104901
791,2026-02-27 00:10:18,104952
792,2026-02-27 00:10:18,104971
793,2026-02-27 00:10:18,105010
794,2026-02-27 00:10:18,104996
795,2026-02-27 00:10:18,105016
796,2026-02-27 00:10:18,105080
797,2026-02-27 00:10:18,105152
798,2026-02-27 00:10:18,105159
799,2026-02-27 00:10:19,105159
800,2026-02-27 00:10:19,104938
801,2026-02-27 00:10:19,104645
802,2026-02-27 00:10:19,104515
803,2026-02-27 00:10:19,104519
804,2026-02-27 00:10:19,104484
805,2026-02-27 00:10:19,104483
806,2026-02-27 00:10:19,104506
807,2026-02-27 00:10:19,104462
808,2026-02-27 00:10:19,104483
809,2026-02-27 00:10:19,104500
810,2026-02-27 00:10:19,104495
811,2026-02-27 00:10:19,104539
812,2026-02-27 00:10:19,104600
813,2026-02-27 00:10:19,104593
814,2026-02-27 00:10:19,104670
815,2026-02-27 00:10:19,104712
816,2026-02-27 00:10:19,104725
817,2026-02-27 00:10:19,104747
818,2026-02-27 00:10:19,104776
819,2026-02-27 00:10:19,104747
820,2026-02-27 00:10:19,104790
821,2026-02-27 00:10:19,104858
822,2026-02-27 00:10:19,104864
823,2026-02-27 00:10:19,104881
824,2026-02-27 00:10:19,104935
825,2026-02-27 00:10:20,104907
826,2026-02-27 00:10:20,104746
827,2026-02-27 00:10:20,104481
828,2026-02-27 00:10:20,104323
829,2026-02-27 00:10:20,104281
830,2026-02-27 00:10:20,104288
831,2026-02-27 00:10:20,104300
832,2026-02-27 00:10:20,104339
833,2026-02-27 00:10:20,104349
834,2026-02-27 00:10:20,104339
835,2026-02-27 00:10:20,104383
836,2026-02-27 00:10:20,104465
837,2026-02-27 00:10:20,104535
838,2026-02-27 00:10:20,104623
839,2026-02-27 00:10:20,104676
840,2026-02-27 00:10:20,104719
841,2026-02-27 00:10:20,104753
842,2026-02-27 00:10:20,104789
843,2026-02-27 00:10:20,104807
844,2026-02-27 00:10:20,104927
845,2026-02-27 00:10:20,104972
846,2026-02-27 00:10:20,104994
847,2026-02-27 00:10:20,105057
848,2026-02-27 00:10:20,105109
849,2026-02-27 00:10:20,105129
850,2026-02-27 00:10:21,105186
851,2026-02-27 00:10:21,105020
852,2026-02-27 00:10:21,104719
853,2026-02-27 00:10:21,104525
854,2026-02-27 00:10:21,104476
855,2026-02-27 00:10:21,104426
856,2026-02-27 00:10:21,104426
857,2026-02-27 00:10:21,104441
858,2026-02-27 00:10:21,104448
859,2026-02-27 00:10:21,104430
860,2026-02-27 00:10:21,104409
861,2026-02-27 00:10:21,104410
862,2026-02-27 00:10:21,104495
863,2026-02-27 00:10:21,104563
864,2026-02-27 00:10:21,104570
865,2026-02-27 00:10:21,104576
866,2026-02-27 00:10:21,104622
867,2026-02-27 00:10:21,104607
868,2026-02-27 00:10:21,104622
869,2026-02-27 00:10:21,104666
870,2026-02-27 00:10:21,104712
871,2026-02-27 00:10:21,104719
872,2026-02-27 00:10:21,104765
873,2026-02-27 00:10:21,104787
874,2026-02-27 00:10:22,104843
875,2026-02-27 00:10:22,104847
876,2026-02-27 00:10:22,104608
877,2026-02-27 00:10:22,104297
878,2026-02-27 00:10:22,104175
879,2026-02-27 00:10:22,104162
880,2026-02-27 00:10:22,104187
881,2026-02-27 00:10:22,104210
882,2026-02-27 00:10:22,104211
883,2026-02-27 00:10:22,104196
884,2026-02-27 00:10:22,104156
885,2026-02-27 00:10:22,104159
886,2026-02-27 00:10:22,104236
887,2026-02-27 00:10:22,104284
888,2026-02-27 00:10:22,104379
889,2026-02-27 00:10:22,104448
890,2026-02-27 00:10:22,104457
891,2026-02-27 00:10:22,104495
892,2026-02-27 00:10:22,104556
893,2026-02-27 00:10:22,104632
894,2026-02-27 00:10:22,104714
895,2026-02-27 00:10:22,104736
896,2026-02-27 00:10:22,104736
897,2026-02-27 00:10:22,104793
898,2026-02-27 00:10:22,104812
899,2026-02-27 00:10:22,104602
900,2026-02-27 00:10:23,104314
901,2026-02-27 00:10:23,104144
902,2026-02-27 00:10:23,104086
903,2026-02-27 00:10:23,104101
904,2026-02-27 00:10:23,104144
905,2026-02-27 00:10:23,104187
906,2026-02-27 00:10:23,104161
907,2026-02-27 00:10:23,104178
908,2026-02-27 00:10:23,104165
909,2026-02-27 00:10:23,104169
910,2026-02-27 00:10:23,104239
911,2026-02-27 00:10:23,104279
912,2026-02-27 00:10:23,104334
913,2026-02-27 00:10:23,104367
914,2026-02-27 00:10:23,104363
915,2026-02-27 00:10:23,104427
916,2026-02-27 00:10:23,104468
917,2026-02-27 00:10:23,104486
918,2026-02-27 00:10:23,104505
919,2026-02-27 00:10:23,104562
920,2026-02-27 00:10:23,104562
921,2026-02-27 00:10:23,104609
922,2026-02-27 00:10:23,104657
923,2026-02-27 00:10:23,104591
924,2026-02-27 00:10:24,104330
925,2026-02-27 00:10:24,104039
926,2026-02-27 00:10:24,103938
927,2026-02-27 00:10:24,103913
928,2026-02-27 00:10:24,103951
929,2026-02-27 00:10:24,103914
930,2026-02-27 00:10:24,103894
931,2026-02-27 00:10:24,103892
932,2026-02-27 00:10:24,103851
933,2026-02-27 00:10:24,103838
934,2026-02-27 00:10:24,103876
935,2026-02-27 00:10:24,103943
936,2026-02-27 00:10:24,104045
937,2026-02-27 00:10:24,104080
938,2026-02-27 00:10:24,104074
939,2026-02-27 00:10:24,104095
940,2026-02-27 00:10:24,104132
941,2026-02-27 00:10:24,104057
942,2026-02-27 00:10:24,103978
943,2026-02-27 00:10:24,103986
944,2026-02-27 00:10:24,104008
945,2026-02-27 00:10:24,104015
946,2026-02-27 00:10:24,104011
947,2026-02-27 00:10:24,103813
948,2026-02-27 00:10:24,103550
949,2026-02-27 00:10:25,103427
950,2026-02-27 00:10:25,103397
951,2026-02-27 00:10:25,103413
952,2026-02-27 00:10:25,103479
953,2026-02-27 00:10:25,103459
954,2026-02-27 00:10:25,103461
955,2026-02-27 00:10:25,103468
956,2026-02-27 00:10:25,103457
957,2026-02-27 00:10:25,103462
958,2026-02-27 00:10:25,103528
959,2026-02-27 00:10:25,103600
960,2026-02-27 00:10:25,103633
961,2026-02-27 00:10:25,103635
962,2026-02-27 00:10:25,103677
963,2026-02-27 00:10:25,103708
964,2026-02-27 00:10:25,103736
965,2026-02-27 00:10:25,103771
966,2026-02-27 00:10:25,103857
967,2026-02-27 00:10:25,103916
968,2026-02-27 00:10:25,104021
969,2026-02-27 00:10:25,104087
970,2026-02-27 00:10:25,104111
971,2026-02-27 00:10:25,103804
972,2026-02-27 00:10:25,103496
973,2026-02-27 00:10:25,103374
974,2026-02-27 00:10:25,103377
975,2026-02-27 00:10:26,103372
976,2026-02-27 00:10:26,103403
977,2026-02-27 00:10:26,103418
978,2026-02-27 00:10:26,103427
979,2026-02-27 00:10:26,103447
980,2026-02-27 00:10:26,103502
981,2026-02-27 00:10:26,103513
982,2026-02-27 00:10:26,103589
983,2026-02-27 00:10:26,103642
984,2026-02-27 00:10:26,103689
985,2026-02-27 00:10:26,103766
986,2026-02-27 00:10:26,103824
987,2026-02-27 00:10:26,103834
988,2026-02-27 00:10:26,103887
989,2026-02-27 00:10:26,103931
990,2026-02-27 00:10:26,104025
991,2026-02-27 00:10:26,104087
992,2026-02-27 00:10:26,104090
993,2026-02-27 00:10:26,104108
994,2026-02-27 00:10:26,104211
995,2026-02-27 00:10:26,104265
996,2026-02-27 00:10:26,104184
997,2026-02-27 00:10:26,103894
998,2026-02-27 00:10:26,103567
999,2026-02-27 00:10:26,103413
1000,2026-02-27 00:10:27,103405
1001,2026-02-27 00:10:27,103443
1002,2026-02-27 00:10:27,103438
1003,2026-02-27 00:10:27,103428
1004,2026-02-27 00:10:27,103431
1005,2026-02-27 00:10:27,103433
1006,2026-02-27 00:10:27,103413
1007,2026-02-27 00:10:27,103441
1008,2026-02-27 00:10:27,103524
1009,2026-02-27 00:10:27,103593
1010,2026-02-27 00:10:27,103602
1011,2026-02-27 00:10:27,103605
1012,2026-02-27 00:10:27,103677
1013,2026-02-27 00:10:27,103688
1014,2026-02-27 00:10:27,103741
1015,2026-02-27 00:10:27,103826
1016,2026-02-27 00:10:27,103836
1017,2026-02-27 00:10:27,103901
1018,2026-02-27 00:10:27,103979
1019,2026-02-27 00:10:27,104021
1020,2026-02-27 00:10:27,104068
1021,2026-02-27 00:10:27,104095
1022,2026-02-27 00:10:27,103918
1023,2026-02-27 00:10:27,103613
1024,2026-02-27 00:10:28,103406
1025,2026-02-27 00:10:28,103354
1026,2026-02-27 00:10:28,103390
1027,2026-02-27 00:10:28,103407
1028,2026-02-27 00:10:28,103418
1029,2026-02-27 00:10:28,103418
1030,2026-02-27 00:10:28,103455
1031,2026-02-27 00:10:28,103474
1032,2026-02-27 00:10:28,103530
1033,2026-02-27 00:10:28,103605
1034,2026-02-27 00:10:28,103670
1035,2026-02-27 00:10:28,103764
1036,2026-02-27 00:10:28,103808
1037,2026-02-27 00:10:28,103891
1038,2026-02-27 00:10:28,103926
1039,2026-02-27 00:10:28,103945
1040,2026-02-27 00:10:28,103963
1041,2026-02-27 00:10:28,103963
1042,2026-02-27 00:10:28,104019
1043,2026-02-27 00:10:28,104069
1044,2026-02-27 00:10:28,104069
1045,2026-02-27 00:10:28,104065
1046,2026-02-27 00:10:28,104069
1047,2026-02-27 00:10:28,104084
1048,2026-02-27 00:10:28,104176
1049,2026-02-27 00:10:29,104068
1050,2026-02-27 00:10:29,103714
1051,2026-02-27 00:10:29,103478
1052,2026-02-27 00:10:29,103437
1053,2026-02-27 00:10:29,103414
1054,2026-02-27 00:10:29,103359
1055,2026-02-27 00:10:29,103363
1056,2026-02-27 00:10:29,103397
1057,2026-02-27 00:10:29,103402
1058,2026-02-27 00:10:29,103427
1059,2026-02-27 00:10:29,103414
1060,2026-02-27 00:10:29,103504
1061,2026-02-27 00:10:29,103574
1062,2026-02-27 00:10:29,103655
1063,2026-02-27 00:10:29,103684
1064,2026-02-27 00:10:29,103728
1065,2026-02-27 00:10:29,103726
1066,2026-02-27 00:10:29,103767
1067,2026-02-27 00:10:29,103804
1068,2026-02-27 00:10:29,103865
1069,2026-02-27 00:10:29,103912
1070,2026-02-27 00:10:29,103978
1071,2026-02-27 00:10:29,104003
1072,2026-02-27 00:10:29,104053
1073,2026-02-27 00:10:29,104069
1074,2026-02-27 00:10:29,104127
1075,2026-02-27 00:10:30,104145
1076,2026-02-27 00:10:30,103876
1077,2026-02-27 00:10:30,103527
1078,2026-02-27 00:10:30,103392
1079,2026-02-27 00:10:30,103418
1080,2026-02-27 00:10:30,103459
1081,2026-02-27 00:10:30,103459
1082,2026-02-27 00:10:30,103466
1083,2026-02-27 00:10:30,103452
1084,2026-02-27 00:10:30,103464
1085,2026-02-27 00:10:30,103478
1086,2026-02-27 00:10:30,103528
1087,2026-02-27 00:10:30,103615
1088,2026-02-27 00:10:30,103657
1089,2026-02-27 00:10:30,103693
1090,2026-02-27 00:10:30,103791
1091,2026-02-27 00:10:30,103830
1092,2026-02-27 00:10:30,103868
1093,2026-02-27 00:10:30,103914
1094,2026-02-27 00:10:30,103965
1095,2026-02-27 00:10:30,103961
1096,2026-02-27 00:10:30,104025
1097,2026-02-27 00:10:30,104103
1098,2026-02-27 00:10:30,104148
1099,2026-02-27 00:10:31,104157
1100,2026-02-27 00:10:31,104066
1101,2026-02-27 00:10:31,103742
1102,2026-02-27 00:10:31,103442
1103,2026-02-27 00:10:31,103297
1104,2026-02-27 00:10:31,103320
1105,2026-02-27 00:10:31,103367
1106,2026-02-27 00:10:31,103368
1107,2026-02-27 00:10:31,103380
1108,2026-02-27 00:10:31,103390
1109,2026-02-27 00:10:31,103407
1110,2026-02-27 00:10:31,103451
1111,2026-02-27 00:10:31,103490
1112,2026-02-27 00:10:31,103549
1113,2026-02-27 00:10:31,103608
1114,2026-02-27 00:10:31,103710
1115,2026-02-27 00:10:31,103764
1116,2026-02-27 00:10:31,103826
1117,2026-02-27 00:10:31,103890
1118,2026-02-27 00:10:31,103903
1119,2026-02-27 00:10:31,103962
1120,2026-02-27 00:10:31,104037
1121,2026-02-27 00:10:31,104073
1122,2026-02-27 00:10:31,104120
1123,2026-02-27 00:10:31,104174
1124,2026-02-27 00:10:31,104197
1125,2026-02-27 00:10:32,104193
1126,2026-02-27 00:10:32,103994
1127,2026-02-27 00:10:32,103665
1128,2026-02-27 00:10:32,103516
1129,2026-02-27 00:10:32,103516
1130,2026-02-27 00:10:32,103510
1131,2026-02-27 00:10:32,103532
1132,2026-02-27 00:10:32,103578
1133,2026-02-27 00:10:32,103555
1134,2026-02-27 00:10:32,103571
1135,2026-02-27 00:10:32,103580
1136,2026-02-27 00:10:32,103609
1137,2026-02-27 00:10:32,103662
1138,2026-02-27 00:10:32,103763
1139,2026-02-27 00:10:32,103815
1140,2026-02-27 00:10:32,103867
1141,2026-02-27 00:10:32,103899
1142,2026-02-27 00:10:32,103904
1143,2026-02-27 00:10:32,103968
1144,2026-02-27 00:10:32,104017
1145,2026-02-27 00:10:32,104056
1146,2026-02-27 00:10:32,104104
1147,2026-02-27 00:10:32,104154
1148,2026-02-27 00:10:32,104168
1149,2026-02-27 00:10:33,104215
1150,2026-02-27 00:10:33,104203
1151,2026-02-27 00:10:33,103958
1152,2026-02-27 00:10:33,103650
1153,2026-02-27 00:10:33,103468
1154,2026-02-27 00:10:33,103437
1155,2026-02-27 00:10:33,103431
1156,2026-02-27 00:10:33,103478
1157,2026-02-27 00:10:33,103522
1158,2026-02-27 00:10:33,103490
1159,2026-02-27 00:10:33,103455
1160,2026-02-27 00:10:33,103440
1161,2026-02-27 00:10:33,103511
1162,2026-02-27 00:10:33,103561
1163,2026-02-27 00:10:33,103561
1164,2026-02-27 00:10:33,103637
1165,2026-02-27 00:10:33,103682
1166,2026-02-27 00:10:33,103730
1167,2026-02-27 00:10:33,103734
1168,2026-02-27 00:10:33,103769
1169,2026-02-27 00:10:33,103818
1170,2026-02-27 00:10:33,103889
1171,2026-02-27 00:10:33,103956
1172,2026-02-27 00:10:33,103983
1173,2026-02-27 00:10:33,104022
1174,2026-02-27 00:10:34,104103
1175,2026-02-27 00:10:34,104065
1176,2026-02-27 00:10:34,103817
1177,2026-02-27 00:10:34,103493
1178,2026-02-27 00:10:34,103335
1179,2026-02-27 00:10:34,103316
1180,2026-02-27 00:10:34,103387
1181,2026-02-27 00:10:34,103379
1182,2026-02-27 00:10:34,103360
1183,2026-02-27 00:10:34,103379
1184,2026-02-27 00:10:34,103389
1185,2026-02-27 00:10:34,103385
1186,2026-02-27 00:10:34,103482
1187,2026-02-27 00:10:34,103575
1188,2026-02-27 00:10:34,103665
1189,2026-02-27 00:10:34,103707
1190,2026-02-27 00:10:34,103735
1191,2026-02-27 00:10:34,103754
1192,2026-02-27 00:10:34,103843
1193,2026-02-27 00:10:34,103883
1194,2026-02-27 00:10:34,103938
1195,2026-02-27 00:10:34,103995
1196,2026-02-27 00:10:34,104078
1197,2026-02-27 00:10:34,104088
1198,2026-02-27 00:10:34,104177
1199,2026-02-27 00:10:34,104209
1200,2026-02-27 00:10:35,103988
1201,2026-02-27 00:10:35,103655
1202,2026-02-27 00:10:35,103434
1203,2026-02-27 00:10:35,103366
1204,2026-02-27 00:10:35,103417
1205,2026-02-27 00:10:35,103417
1206,2026-02-27 00:10:35,103417
1207,2026-02-27 00:10:35,103421
1208,2026-02-27 00:10:35,103425
1209,2026-02-27 00:10:35,103385
1210,2026-02-27 00:10:35,103441
1211,2026-02-27 00:10:35,103496
1212,2026-02-27 00:10:35,103552
1213,2026-02-27 00:10:35,103636
1214,2026-02-27 00:10:35,103660
1215,2026-02-27 00:10:35,103669
1216,2026-02-27 00:10:35,103744
1217,2026-02-27 00:10:35,103755
1218,2026-02-27 00:10:35,103795
1219,2026-02-27 00:10:35,103845
1220,2026-02-27 00:10:35,103893
1221,2026-02-27 00:10:35,103909
1222,2026-02-27 00:10:35,103998
1223,2026-02-27 00:10:35,104038
1224,2026-02-27 00:10:35,103843
1225,2026-02-27 00:10:36,103489
1226,2026-02-27 00:10:36,103283
1227,2026-02-27 00:10:36,103198
1228,2026-02-27 00:10:36,103241
1229,2026-02-27 00:10:36,103272
1230,2026-02-27 00:10:36,103313
1231,2026-02-27 00:10:36,103310
1232,2026-02-27 00:10:36,103299
1233,2026-02-27 00:10:36,103234
1234,2026-02-27 00:10:36,103282
1235,2026-02-27 00:10:36,103371
1236,2026-02-27 00:10:36,103404
1237,2026-02-27 00:10:36,103449
1238,2026-02-27 00:10:36,103511
1239,2026-02-27 00:10:36,103540
1240,2026-02-27 00:10:36,103596
1241,2026-02-27 00:10:36,103640
1242,2026-02-27 00:10:36,103703
1243,2026-02-27 00:10:36,103750
1244,2026-02-27 00:10:36,103815
1245,2026-02-27 00:10:36,103826
1246,2026-02-27 00:10:36,103888
1247,2026-02-27 00:10:36,103722
1248,2026-02-27 00:10:37,103333
1249,2026-02-27 00:10:37,103097
1250,2026-02-27 00:10:37,103067
1251,2026-02-27 00:10:37,103097
1252,2026-02-27 00:10:37,103094
1253,2026-02-27 00:10:37,103120
1254,2026-02-27 00:10:37,103131
1255,2026-02-27 00:10:37,103132
1256,2026-02-27 00:10:37,103145
1257,2026-02-27 00:10:37,103151
1258,2026-02-27 00:10:37,103223
1259,2026-02-27 00:10:37,103291
1260,2026-02-27 00:10:37,103341
1261,2026-02-27 00:10:37,103403
1262,2026-02-27 00:10:37,103417
1263,2026-02-27 00:10:37,103447
1264,2026-02-27 00:10:37,103490
1265,2026-02-27 00:10:37,103530
1266,2026-02-27 00:10:37,103584
1267,2026-02-27 00:10:37,103635
1268,2026-02-27 00:10:37,103679
1269,2026-02-27 00:10:37,103721
1270,2026-02-27 00:10:37,103688
1271,2026-02-27 00:10:37,103372
1272,2026-02-27 00:10:37,103063
1273,2026-02-27 00:10:37,102952
1274,2026-02-27 00:10:37,102982
1275,2026-02-27 00:10:38,102972
1276,2026-02-27 00:10:38,102991
1277,2026-02-27 00:10:38,103020
1278,2026-02-27 00:10:38,103019
1279,2026-02-27 00:10:38,103021
1280,2026-02-27 00:10:38,103047
1281,2026-02-27 00:10:38,103109
1282,2026-02-27 00:10:38,103166
1283,2026-02-27 00:10:38,103166
1284,2026-02-27 00:10:38,103217
1285,2026-02-27 00:10:38,103290
1286,2026-02-27 00:10:38,103322
1287,2026-02-27 00:10:38,103323
1288,2026-02-27 00:10:38,103368
1289,2026-02-27 00:10:38,103404
1290,2026-02-27 00:10:38,103425
1291,2026-02-27 00:10:38,103493
1292,2026-02-27 00:10:38,103563
1293,2026-02-27 00:10:38,103580
1294,2026-02-27 00:10:38,103647
1295,2026-02-27 00:10:38,103600
1296,2026-02-27 00:10:38,103300
1297,2026-02-27 00:10:38,102996
1298,2026-02-27 00:10:38,102858
1299,2026-02-27 00:10:39,102843
1300,2026-02-27 00:10:39,102895
1301,2026-02-27 00:10:39,102922
1302,2026-02-27 00:10:39,102959
1303,2026-02-27 00:10:39,102953
1304,2026-02-27 00:10:39,102934
1305,2026-02-27 00:10:39,102886
1306,2026-02-27 00:10:39,102959
1307,2026-02-27 00:10:39,103054
1308,2026-02-27 00:10:39,103149
1309,2026-02-27 00:10:39,103191
1310,2026-02-27 00:10:39,103207
1311,2026-02-27 00:10:39,103197
1312,2026-02-27 00:10:39,103254
1313,2026-02-27 00:10:39,103299
1314,2026-02-27 00:10:39,103329
1315,2026-02-27 00:10:39,103413
1316,2026-02-27 00:10:39,103459
1317,2026-02-27 00:10:39,103474
1318,2026-02-27 00:10:39,103587
1319,2026-02-27 00:10:39,103418
1320,2026-02-27 00:10:39,102995
1321,2026-02-27 00:10:39,102757
1322,2026-02-27 00:10:39,102733
1323,2026-02-27 00:10:39,102752
1324,2026-02-27 00:10:40,102788
1325,2026-02-27 00:10:40,102788
1326,2026-02-27 00:10:40,102834
1327,2026-02-27 00:10:40,102840
1328,2026-02-27 00:10:40,102822
1329,2026-02-27 00:10:40,102848
1330,2026-02-27 00:10:40,102948
1331,2026-02-27 00:10:40,103015
1332,2026-02-27 00:10:40,103047
1333,2026-02-27 00:10:40,103083
1334,2026-02-27 00:10:40,103107
1335,2026-02-27 00:10:40,103130
1336,2026-02-27 00:10:40,103224
1337,2026-02-27 00:10:40,103311
1338,2026-02-27 00:10:40,103355
1339,2026-02-27 00:10:40,103440
1340,2026-02-27 00:10:40,103501
1341,2026-02-27 00:10:40,103509
1342,2026-02-27 00:10:40,103581
1343,2026-02-27 00:10:40,103567
1344,2026-02-27 00:10:40,103274
1345,2026-02-27 00:10:40,102964
1346,2026-02-27 00:10:40,102806
1347,2026-02-27 00:10:40,102759
1348,2026-02-27 00:10:40,102758
1349,2026-02-27 00:10:40,102756
1350,2026-02-27 00:10:41,102785
1351,2026-02-27 00:10:41,102805
1352,2026-02-27 00:10:41,102806
1353,2026-02-27 00:10:41,102838
1354,2026-02-27 00:10:41,102966
1355,2026-02-27 00:10:41,103054
1356,2026-02-27 00:10:41,103127
1357,2026-02-27 00:10:41,103210
1358,2026-02-27 00:10:41,103226
1359,2026-02-27 00:10:41,103236
1360,2026-02-27 00:10:41,103318
1361,2026-02-27 00:10:41,103375
1362,2026-02-27 00:10:41,103391
1363,2026-02-27 00:10:41,103440
1364,2026-02-27 00:10:41,103498
1365,2026-02-27 00:10:41,103542
1366,2026-02-27 00:10:41,103587
1367,2026-02-27 00:10:41,103657
1368,2026-02-27 00:10:41,103680
1369,2026-02-27 00:10:41,103521
1370,2026-02-27 00:10:41,103143
1371,2026-02-27 00:10:41,102886
1372,2026-02-27 00:10:41,102855
1373,2026-02-27 00:10:41,102859
1374,2026-02-27 00:10:42,102914
1375,2026-02-27 00:10:42,102997
1376,2026-02-27 00:10:42,102998
1377,2026-02-27 00:10:42,102992
1378,2026-02-27 00:10:42,103013
1379,2026-02-27 00:10:42,103060
1380,2026-02-27 00:10:42,103139
1381,2026-02-27 00:10:42,103211
1382,2026-02-27 00:10:42,103270
1383,2026-02-27 00:10:42,103331
1384,2026-02-27 00:10:42,103353
1385,2026-02-27 00:10:42,103372
1386,2026-02-27 00:10:42,103447
1387,2026-02-27 00:10:42,103504
1388,2026-02-27 00:10:42,103526
1389,2026-02-27 00:10:42,103614
1390,2026-02-27 00:10:42,103689
1391,2026-02-27 00:10:42,103732
1392,2026-02-27 00:10:42,103790
1393,2026-02-27 00:10:42,103698
1394,2026-02-27 00:10:42,103275
1395,2026-02-27 00:10:42,103006
1396,2026-02-27 00:10:42,102947
1397,2026-02-27 00:10:42,102965
1398,2026-02-27 00:10:42,102976
1399,2026-02-27 00:10:43,102983
1400,2026-02-27 00:10:43,103016
1401,2026-02-27 00:10:43,103029
1402,2026-02-27 00:10:43,103005
1403,2026-02-27 00:10:43,103048
1404,2026-02-27 00:10:43,103048
1405,2026-02-27 00:10:43,103111
1406,2026-02-27 00:10:43,103204
1407,2026-02-27 00:10:43,103257
1408,2026-02-27 00:10:43,103308
1409,2026-02-27 00:10:43,103388
1410,2026-02-27 00:10:43,103419
1411,2026-02-27 00:10:43,103424
1412,2026-02-27 00:10:43,103497
1413,2026-02-27 00:10:43,103561
1414,2026-02-27 00:10:43,103612
1415,2026-02-27 00:10:43,103678
1416,2026-02-27 00:10:43,103754
1417,2026-02-27 00:10:43,103810
1418,2026-02-27 00:10:43,103808
1419,2026-02-27 00:10:43,103494
1420,2026-02-27 00:10:43,103116
1421,2026-02-27 00:10:43,102976
1422,2026-02-27 00:10:43,102953
1423,2026-02-27 00:10:43,102975
1424,2026-02-27 00:10:44,103002
1425,2026-02-27 00:10:44,103012
1426,2026-02-27 00:10:44,103038
1427,2026-02-27 00:10:44,103040
1428,2026-02-27 00:10:44,103060
1429,2026-02-27 00:10:44,103116
1430,2026-02-27 00:10:44,103164
1431,2026-02-27 00:10:44,103175
1432,2026-02-27 00:10:44,103215
1433,2026-02-27 00:10:44,103226
1434,2026-02-27 00:10:44,103234
1435,2026-02-27 00:10:44,103263
1436,2026-02-27 00:10:44,103327
1437,2026-02-27 00:10:44,103326
1438,2026-02-27 00:10:44,103380
1439,2026-02-27 00:10:44,103438
1440,2026-02-27 00:10:44,103499
1441,2026-02-27 00:10:44,103540
1442,2026-02-27 00:10:44,103499
1443,2026-02-27 00:10:44,103215
1444,2026-02-27 00:10:44,102878
1445,2026-02-27 00:10:44,102706
1446,2026-02-27 00:10:44,102739
1447,2026-02-27 00:10:45,102796
1448,2026-02-27 00:10:45,102839
1449,2026-02-27 00:10:45,102848
1450,2026-02-27 00:10:45,102875
1451,2026-02-27 00:10:45,102843
1452,2026-02-27 00:10:45,102836
1453,2026-02-27 00:10:45,102916
1454,2026-02-27 00:10:45,102982
1455,2026-02-27 00:10:45,103002
1456,2026-02-27 00:10:45,103102
1457,2026-02-27 00:10:45,103145
1458,2026-02-27 00:10:45,103200
1459,2026-02-27 00:10:45,103241
1460,2026-02-27 00:10:45,103268
1461,2026-02-27 00:10:45,103288
1462,2026-02-27 00:10:45,103369
1463,2026-02-27 00:10:45,103438
1464,2026-02-27 00:10:45,103523
1465,2026-02-27 00:10:45,103557
1466,2026-02-27 00:10:45,103365
1467,2026-02-27 00:10:45,102953
1468,2026-02-27 00:10:45,102733
1469,2026-02-27 00:10:45,102678
1470,2026-02-27 00:10:45,102712
1471,2026-02-27 00:10:45,102725
1472,2026-02-27 00:10:45,102742
1473,2026-02-27 00:10:45,102738
1474,2026-02-27 00:10:46,102771
1475,2026-02-27 00:10:46,102774
1476,2026-02-27 00:10:46,102831
1477,2026-02-27 00:10:46,102888
1478,2026-02-27 00:10:46,102954
1479,2026-02-27 00:10:46,103001
1480,2026-02-27 00:10:46,103091
1481,2026-02-27 00:10:46,103157
1482,2026-02-27 00:10:46,103219
1483,2026-02-27 00:10:46,103267
1484,2026-02-27 00:10:46,103330
1485,2026-02-27 00:10:46,103398
1486,2026-02-27 00:10:46,103476
1487,2026-02-27 00:10:46,103537
1488,2026-02-27 00:10:46,103596
1489,2026-02-27 00:10:46,103618
1490,2026-02-27 00:10:46,103500
1491,2026-02-27 00:10:46,103107
1492,2026-02-27 00:10:46,102826
1493,2026-02-27 00:10:46,102716
1494,2026-02-27 00:10:46,102737
1495,2026-02-27 00:10:46,102777
1496,2026-02-27 00:10:46,102767
1497,2026-02-27 00:10:46,102755
1498,2026-02-27 00:10:46,102792
1499,2026-02-27 00:10:46,102807
1500,2026-02-27 00:10:47,102837
1501,2026-02-27 00:10:47,102916
1502,2026-02-27 00:10:47,102936
1503,2026-02-27 00:10:47,102985
1504,2026-02-27 00:10:47,103056
1505,2026-02-27 00:10:47,103051
1506,2026-02-27 00:10:47,103090
1507,2026-02-27 00:10:47,103247
1508,2026-02-27 00:10:47,103306
1509,2026-02-27 00:10:47,103346
1510,2026-02-27 00:10:47,103450
1511,2026-02-27 00:10:47,103474
1512,2026-02-27 00:10:47,103445
1513,2026-02-27 00:10:47,103297
1514,2026-02-27 00:10:47,103057
1515,2026-02-27 00:10:47,102629
1516,2026-02-27 00:10:47,102283
1517,2026-02-27 00:10:47,102165
1518,2026-02-27 00:10:47,102146
1519,2026-02-27 00:10:47,102220
1520,2026-02-27 00:10:47,102236
1521,2026-02-27 00:10:47,102264
1522,2026-02-27 00:10:47,102346
1523,2026-02-27 00:10:47,102341
1524,2026-02-27 00:10:48,102376
1525,2026-02-27 00:10:48,102376
1526,2026-02-27 00:10:48,102494
1527,2026-02-27 00:10:48,102574
1528,2026-02-27 00:10:48,102719
1529,2026-02-27 00:10:48,102787
1530,2026-02-27 00:10:48,102790
1531,2026-02-27 00:10:48,102868
1532,2026-02-27 00:10:48,102933
1533,2026-02-27 00:10:48,102961
1534,2026-02-27 00:10:48,103091
1535,2026-02-27 00:10:48,103166
1536,2026-02-27 00:10:48,103193
1537,2026-02-27 00:10:48,103226
1538,2026-02-27 00:10:48,103290
1539,2026-02-27 00:10:48,102960
1540,2026-02-27 00:10:48,102523
1541,2026-02-27 00:10:48,102364
1542,2026-02-27 00:10:48,102327
1543,2026-02-27 00:10:48,102295
1544,2026-02-27 00:10:48,102334
1545,2026-02-27 00:10:48,102386
1546,2026-02-27 00:10:48,102444
1547,2026-02-27 00:10:48,102464
1548,2026-02-27 00:10:48,102475
1549,2026-02-27 00:10:49,102511
1550,2026-02-27 00:10:49,102568
1551,2026-02-27 00:10:49,102597
1552,2026-02-27 00:10:49,102688
1553,2026-02-27 00:10:49,102772
1554,2026-02-27 00:10:49,102839
1555,2026-02-27 00:10:49,102854
1556,2026-02-27 00:10:49,102916
1557,2026-02-27 00:10:49,102965
1558,2026-02-27 00:10:49,103060
1559,2026-02-27 00:10:49,103134
1560,2026-02-27 00:10:49,103220
1561,2026-02-27 00:10:49,103292
1562,2026-02-27 00:10:49,103295
1563,2026-02-27 00:10:49,102992
1564,2026-02-27 00:10:49,102594
1565,2026-02-27 00:10:49,102398
1566,2026-02-27 00:10:49,102372
1567,2026-02-27 00:10:49,102393
1568,2026-02-27 00:10:49,102395
1569,2026-02-27 00:10:49,102398
1570,2026-02-27 00:10:49,102472
1571,2026-02-27 00:10:49,102471
1572,2026-02-27 00:10:49,102477
1573,2026-02-27 00:10:49,102542
1574,2026-02-27 00:10:49,102610
1575,2026-02-27 00:10:50,102607
1576,2026-02-27 00:10:50,102670
1577,2026-02-27 00:10:50,102749
1578,2026-02-27 00:10:50,102787
1579,2026-02-27 00:10:50,102803
1580,2026-02-27 00:10:50,102866
1581,2026-02-27 00:10:50,102869
1582,2026-02-27 00:10:50,102911
1583,2026-02-27 00:10:50,102975
1584,2026-02-27 00:10:50,103041
1585,2026-02-27 00:10:50,103091
1586,2026-02-27 00:10:50,103177
1587,2026-02-27 00:10:50,103155
1588,2026-02-27 00:10:50,102840
1589,2026-02-27 00:10:50,102566
1590,2026-02-27 00:10:50,102467
1591,2026-02-27 00:10:50,102534
1592,2026-02-27 00:10:50,102604
1593,2026-02-27 00:10:50,102604
1594,2026-02-27 00:10:50,102657
1595,2026-02-27 00:10:50,102666
1596,2026-02-27 00:10:50,102669
1597,2026-02-27 00:10:50,102672
1598,2026-02-27 00:10:50,102718
1599,2026-02-27 00:10:51,102810
1600,2026-02-27 00:10:51,102863
1601,2026-02-27 00:10:51,102923
1602,2026-02-27 00:10:51,103005
1603,2026-02-27 00:10:51,103029
1604,2026-02-27 00:10:51,103049
1605,2026-02-27 00:10:51,103119
1606,2026-02-27 00:10:51,103194
1607,2026-02-27 00:10:51,103233
1608,2026-02-27 00:10:51,103287
1609,2026-02-27 00:10:51,103356
1610,2026-02-27 00:10:51,103405
1611,2026-02-27 00:10:51,103273
1612,2026-02-27 00:10:51,102867
1613,2026-02-27 00:10:51,102466
1614,2026-02-27 00:10:51,102361
1615,2026-02-27 00:10:51,102426
1616,2026-02-27 00:10:51,102445
1617,2026-02-27 00:10:51,102548
1618,2026-02-27 00:10:51,102596
1619,2026-02-27 00:10:51,102620
1620,2026-02-27 00:10:51,102623
1621,2026-02-27 00:10:51,102680
1622,2026-02-27 00:10:51,102774
1623,2026-02-27 00:10:51,102859
1624,2026-02-27 00:10:52,102906
1625,2026-02-27 00:10:52,102964
1626,2026-02-27 00:10:52,103037
1627,2026-02-27 00:10:52,103043
1628,2026-02-27 00:10:52,103068
1629,2026-02-27 00:10:52,103138
1630,2026-02-27 00:10:52,103207
1631,2026-02-27 00:10:52,103273
1632,2026-02-27 00:10:52,103364
1633,2026-02-27 00:10:52,103422
1634,2026-02-27 00:10:52,103463
1635,2026-02-27 00:10:52,103407
1636,2026-02-27 00:10:52,103044
1637,2026-02-27 00:10:52,102664
1638,2026-02-27 00:10:52,102524
1639,2026-02-27 00:10:52,102553
1640,2026-02-27 00:10:52,102548
1641,2026-02-27 00:10:52,102543
1642,2026-02-27 00:10:52,102561
1643,2026-02-27 00:10:52,102535
1644,2026-02-27 00:10:52,102498
1645,2026-02-27 00:10:52,102498
1646,2026-02-27 00:10:52,102527
1647,2026-02-27 00:10:52,102556
1648,2026-02-27 00:10:52,102604
1649,2026-02-27 00:10:52,102706
1650,2026-02-27 00:10:53,102731
1651,2026-02-27 00:10:53,102780
1652,2026-02-27 00:10:53,102851
1653,2026-02-27 00:10:53,102881
1654,2026-02-27 00:10:53,102950
1655,2026-02-27 00:10:53,103045
1656,2026-02-27 00:10:53,103118
1657,2026-02-27 00:10:53,103170
1658,2026-02-27 00:10:53,103232
1659,2026-02-27 00:10:53,103254
1660,2026-02-27 00:10:53,103153
1661,2026-02-27 00:10:53,102767
1662,2026-02-27 00:10:53,102448
1663,2026-02-27 00:10:53,102384
1664,2026-02-27 00:10:53,102406
1665,2026-02-27 00:10:53,102415
1666,2026-02-27 00:10:53,102468
1667,2026-02-27 00:10:53,102408
1668,2026-02-27 00:10:53,102323
1669,2026-02-27 00:10:53,102294
1670,2026-02-27 00:10:53,102370
1671,2026-02-27 00:10:53,102424
1672,2026-02-27 00:10:53,102552
1673,2026-02-27 00:10:53,102609
1674,2026-02-27 00:10:53,102707
1675,2026-02-27 00:10:54,102782
1676,2026-02-27 00:10:54,102823
1677,2026-02-27 00:10:54,102852
1678,2026-02-27 00:10:54,102918
1679,2026-02-27 00:10:54,102980
1680,2026-02-27 00:10:54,103023
1681,2026-02-27 00:10:54,103102
1682,2026-02-27 00:10:54,103188
1683,2026-02-27 00:10:54,103168
1684,2026-02-27 00:10:54,102914
1685,2026-02-27 00:10:54,102488
1686,2026-02-27 00:10:54,102271
1687,2026-02-27 00:10:54,102242
1688,2026-02-27 00:10:54,102228
1689,2026-02-27 00:10:54,102221
1690,2026-02-27 00:10:54,102286
1691,2026-02-27 00:10:54,102289
1692,2026-02-27 00:10:54,102302
1693,2026-02-27 00:10:54,102338
1694,2026-02-27 00:10:54,102387
1695,2026-02-27 00:10:54,102422
1696,2026-02-27 00:10:54,102551
1697,2026-02-27 00:10:54,102664
1698,2026-02-27 00:10:54,102712
1699,2026-02-27 00:10:55,102727
1700,2026-02-27 00:10:55,102772
1701,2026-02-27 00:10:55,102833
1702,2026-02-27 00:10:55,102941
1703,2026-02-27 00:10:55,103006
1704,2026-02-27 00:10:55,103035
1705,2026-02-27 00:10:55,103076
1706,2026-02-27 00:10:55,103118
1707,2026-02-27 00:10:55,103112
1708,2026-02-27 00:10:55,102887
1709,2026-02-27 00:10:55,102444
1710,2026-02-27 00:10:55,102207
1711,2026-02-27 00:10:55,102246
1712,2026-02-27 00:10:55,102282
1713,2026-02-27 00:10:55,102299
1714,2026-02-27 00:10:55,102384
1715,2026-02-27 00:10:55,102392
1716,2026-02-27 00:10:55,102367
1717,2026-02-27 00:10:55,102373
1718,2026-02-27 00:10:55,102390
1719,2026-02-27 00:10:55,102411
1720,2026-02-27 00:10:55,102530
1721,2026-02-27 00:10:55,102569
1722,2026-02-27 00:10:55,102603
1723,2026-02-27 00:10:55,102670
1724,2026-02-27 00:10:55,102671
1725,2026-02-27 00:10:56,102732
1726,2026-02-27 00:10:56,102788
1727,2026-02-27 00:10:56,102823
1728,2026-02-27 00:10:56,102897
1729,2026-02-27 00:10:56,102984
1730,2026-02-27 00:10:56,102951
1731,2026-02-27 00:10:56,102609
1732,2026-02-27 00:10:56,102225
1733,2026-02-27 00:10:56,102031
1734,2026-02-27 00:10:56,102081
1735,2026-02-27 00:10:56,102162
1736,2026-02-27 00:10:56,102195
1737,2026-02-27 00:10:56,102195
1738,2026-02-27 00:10:56,102241
1739,2026-02-27 00:10:56,102284
1740,2026-02-27 00:10:56,102279
1741,2026-02-27 00:10:56,102358
1742,2026-02-27 00:10:56,102440
1743,2026-02-27 00:10:56,102533
1744,2026-02-27 00:10:56,102632
1745,2026-02-27 00:10:56,102704
1746,2026-02-27 00:10:56,102738
1747,2026-02-27 00:10:56,102795
1748,2026-02-27 00:10:56,102831
1749,2026-02-27 00:10:56,102898
1750,2026-02-27 00:10:57,102948
1751,2026-02-27 00:10:57,103028
1752,2026-02-27 00:10:57,103110
1753,2026-02-27 00:10:57,103117
1754,2026-02-27 00:10:57,102777
1755,2026-02-27 00:10:57,102356
1756,2026-02-27 00:10:57,102189
1757,2026-02-27 00:10:57,102177
1758,2026-02-27 00:10:57,102236
1759,2026-02-27 00:10:57,102292
1760,2026-02-27 00:10:57,102286
1761,2026-02-27 00:10:57,102299
1762,2026-02-27 00:10:57,102316
1763,2026-02-27 00:10:57,102323
1764,2026-02-27 00:10:57,102370
1765,2026-02-27 00:10:57,102370
1766,2026-02-27 00:10:57,102444
1767,2026-02-27 00:10:57,102488
1768,2026-02-27 00:10:57,102518
1769,2026-02-27 00:10:57,102577
1770,2026-02-27 00:10:57,102598
1771,2026-02-27 00:10:57,102636
1772,2026-02-27 00:10:57,102671
1773,2026-02-27 00:10:57,102662
1774,2026-02-27 00:10:58,102724
1775,2026-02-27 00:10:58,102773
1776,2026-02-27 00:10:58,102801
1777,2026-02-27 00:10:58,102649
1778,2026-02-27 00:10:58,102225
1779,2026-02-27 00:10:58,101914
1780,2026-02-27 00:10:58,101863
1781,2026-02-27 00:10:58,101887
1782,2026-02-27 00:10:58,101936
1783,2026-02-27 00:10:58,101998
1784,2026-02-27 00:10:58,101991
1785,2026-02-27 00:10:58,101958
1786,2026-02-27 00:10:58,101998
1787,2026-02-27 00:10:58,102034
1788,2026-02-27 00:10:58,102108
1789,2026-02-27 00:10:58,102229
1790,2026-02-27 00:10:58,102282
1791,2026-02-27 00:10:58,102321
1792,2026-02-27 00:10:58,102380
1793,2026-02-27 00:10:58,102426
1794,2026-02-27 00:10:58,102501
1795,2026-02-27 00:10:58,102552
1796,2026-02-27 00:10:58,102583
1797,2026-02-27 00:10:58,102604
1798,2026-02-27 00:10:58,102682
1799,2026-02-27 00:10:58,102479
1800,2026-02-27 00:10:59,102039
1801,2026-02-27 00:10:59,101841
1802,2026-02-27 00:10:59,101893
1803,2026-02-27 00:10:59,101978
1804,2026-02-27 00:10:59,102026
1805,2026-02-27 00:10:59,102011
1806,2026-02-27 00:10:59,101959
1807,2026-02-27 00:10:59,101857
1808,2026-02-27 00:10:59,101768
1809,2026-02-27 00:10:59,101764
1810,2026-02-27 00:10:59,101856
1811,2026-02-27 00:10:59,101919
1812,2026-02-27 00:10:59,101974
1813,2026-02-27 00:10:59,102047
1814,2026-02-27 00:10:59,102085
1815,2026-02-27 00:10:59,102044
1816,2026-02-27 00:10:59,102096
1817,2026-02-27 00:10:59,102116
1818,2026-02-27 00:10:59,102171
1819,2026-02-27 00:10:59,102225
1820,2026-02-27 00:10:59,102218
1821,2026-02-27 00:10:59,102079
1822,2026-02-27 00:10:59,101698
1823,2026-02-27 00:10:59,101340
1824,2026-02-27 00:10:59,101219
1825,2026-02-27 00:11:00,101220
1826,2026-02-27 00:11:00,101184
1827,2026-02-27 00:11:00,101162
1828,2026-02-27 00:11:00,101215
1829,2026-02-27 00:11:00,101228
1830,2026-02-27 00:11:00,101237
1831,2026-02-27 00:11:00,101273
1832,2026-02-27 00:11:00,101318
1833,2026-02-27 00:11:00,101306
1834,2026-02-27 00:11:00,101369
1835,2026-02-27 00:11:00,101452
1836,2026-02-27 00:11:00,101507
1837,2026-02-27 00:11:00,101524
1838,2026-02-27 00:11:00,101568
1839,2026-02-27 00:11:00,101585
1840,2026-02-27 00:11:00,101674
1841,2026-02-27 00:11:00,101766
1842,2026-02-27 00:11:00,101789
1843,2026-02-27 00:11:00,101878
1844,2026-02-27 00:11:00,101828
1845,2026-02-27 00:11:00,101476
1846,2026-02-27 00:11:00,101199
1847,2026-02-27 00:11:00,101126
1848,2026-02-27 00:11:00,101111
1849,2026-02-27 00:11:01,101114
1850,2026-02-27 00:11:01,101159
1851,2026-02-27 00:11:01,101227
1852,2026-02-27 00:11:01,101288
1853,2026-02-27 00:11:01,101269
1854,2026-02-27 00:11:01,101306
1855,2026-02-27 00:11:01,101319
1856,2026-02-27 00:11:01,101382
1857,2026-02-27 00:11:01,101454
1858,2026-02-27 00:11:01,101418
1859,2026-02-27 00:11:01,101384
1860,2026-02-27 00:11:01,101421
1861,2026-02-27 00:11:01,101507
1862,2026-02-27 00:11:01,101605
1863,2026-02-27 00:11:01,101682
1864,2026-02-27 00:11:01,101765
1865,2026-02-27 00:11:01,101895
1866,2026-02-27 00:11:01,102017
1867,2026-02-27 00:11:01,102068
1868,2026-02-27 00:11:01,101892
1869,2026-02-27 00:11:01,101622
1870,2026-02-27 00:11:01,101461
1871,2026-02-27 00:11:01,101427
1872,2026-02-27 00:11:01,101530
1873,2026-02-27 00:11:01,101593
1874,2026-02-27 00:11:01,101577
1875,2026-02-27 00:11:02,101635
1876,2026-02-27 00:11:02,101644
1877,2026-02-27 00:11:02,101618
1878,2026-02-27 00:11:02,101648
1879,2026-02-27 00:11:02,101745
1880,2026-02-27 00:11:02,101838
1881,2026-02-27 00:11:02,101940
1882,2026-02-27 00:11:02,102043
1883,2026-02-27 00:11:02,102122
1884,2026-02-27 00:11:02,102188
1885,2026-02-27 00:11:02,102188
1886,2026-02-27 00:11:02,102251
1887,2026-02-27 00:11:02,102277
1888,2026-02-27 00:11:02,102357
1889,2026-02-27 00:11:02,102450
1890,2026-02-27 00:11:02,102499
1891,2026-02-27 00:11:02,102520
1892,2026-02-27 00:11:02,102557
1893,2026-02-27 00:11:02,102585
1894,2026-02-27 00:11:02,102479
1895,2026-02-27 00:11:02,102070
1896,2026-02-27 00:11:02,101779
1897,2026-02-27 00:11:02,101719
1898,2026-02-27 00:11:02,101718
1899,2026-02-27 00:11:03,101709
1900,2026-02-27 00:11:03,101749
1901,2026-02-27 00:11:03,101778
1902,2026-02-27 00:11:03,101802
1903,2026-02-27 00:11:03,101805
1904,2026-02-27 00:11:03,101804
1905,2026-02-27 00:11:03,101820
1906,2026-02-27 00:11:03,101943
1907,2026-02-27 00:11:03,101985
1908,2026-02-27 00:11:03,102017
1909,2026-02-27 00:11:03,102073
1910,2026-02-27 00:11:03,102119
1911,2026-02-27 00:11:03,102141
1912,2026-02-27 00:11:03,102260
1913,2026-02-27 00:11:03,102327
1914,2026-02-27 00:11:03,102354
1915,2026-02-27 00:11:03,102402
1916,2026-02-27 00:11:03,102404
1917,2026-02-27 00:11:03,102349
1918,2026-02-27 00:11:03,102459
1919,2026-02-27 00:11:03,102499
1920,2026-02-27 00:11:03,102413
1921,2026-02-27 00:11:03,102148
1922,2026-02-27 00:11:03,101815
1923,2026-02-27 00:11:03,101658
1924,2026-02-27 00:11:04,101720
1925,2026-02-27 00:11:04,101731
1926,2026-02-27 00:11:04,101733
1927,2026-02-27 00:11:04,101798
1928,2026-02-27 00:11:04,101807
1929,2026-02-27 00:11:04,101736
1930,2026-02-27 00:11:04,101811
1931,2026-02-27 00:11:04,101863
1932,2026-02-27 00:11:04,101908
1933,2026-02-27 00:11:04,102007
1934,2026-02-27 00:11:04,102074
1935,2026-02-27 00:11:04,102127
1936,2026-02-27 00:11:04,102239
1937,2026-02-27 00:11:04,102238
1938,2026-02-27 00:11:04,102260
1939,2026-02-27 00:11:04,102364
1940,2026-02-27 00:11:04,102424
1941,2026-02-27 00:11:04,102429
1942,2026-02-27 00:11:04,102501
1943,2026-02-27 00:11:04,102582
1944,2026-02-27 00:11:04,102635
1945,2026-02-27 00:11:04,102488
1946,2026-02-27 00:11:04,102124
1947,2026-02-27 00:11:04,101803
1948,2026-02-27 00:11:04,101738
1949,2026-02-27 00:11:04,101769
1950,2026-02-27 00:11:05,101774
1951,2026-02-27 00:11:05,101815
1952,2026-02-27 00:11:05,101864
1953,2026-02-27 00:11:05,101860
1954,2026-02-27 00:11:05,101911
1955,2026-02-27 00:11:05,101967
1956,2026-02-27 00:11:05,102051
1957,2026-02-27 00:11:05,102138
1958,2026-02-27 00:11:05,102184
1959,2026-02-27 00:11:05,102236
1960,2026-02-27 00:11:05,102267
1961,2026-02-27 00:11:05,102345
1962,2026-02-27 00:11:05,102421
1963,2026-02-27 00:11:05,102473
1964,2026-02-27 00:11:05,102541
1965,2026-02-27 00:11:05,102579
1966,2026-02-27 00:11:05,102658
1967,2026-02-27 00:11:05,102683
1968,2026-02-27 00:11:05,102732
1969,2026-02-27 00:11:05,102586
1970,2026-02-27 00:11:05,102110
1971,2026-02-27 00:11:05,101741
1972,2026-02-27 00:11:05,101674
1973,2026-02-27 00:11:05,101685
1974,2026-02-27 00:11:06,101693
1975,2026-02-27 00:11:06,101751
1976,2026-02-27 00:11:06,101752
1977,2026-02-27 00:11:06,101753
1978,2026-02-27 00:11:06,101783
1979,2026-02-27 00:11:06,101773
1980,2026-02-27 00:11:06,101780
1981,2026-02-27 00:11:06,101841
1982,2026-02-27 00:11:06,101861
1983,2026-02-27 00:11:06,101909
1984,2026-02-27 00:11:06,101946
1985,2026-02-27 00:11:06,101910
1986,2026-02-27 00:11:06,101951
1987,2026-02-27 00:11:06,102025
1988,2026-02-27 00:11:06,101975
1989,2026-02-27 00:11:06,102015
1990,2026-02-27 00:11:06,102064
1991,2026-02-27 00:11:06,102032
1992,2026-02-27 00:11:06,101945
1993,2026-02-27 00:11:06,101663
1994,2026-02-27 00:11:06,101303
1995,2026-02-27 00:11:06,101081
1996,2026-02-27 00:11:06,101087
1997,2026-02-27 00:11:06,101190
1998,2026-02-27 00:11:06,101262
1999,2026-02-27 00:11:07,101257
2000,2026-02-27 00:11:07,101197
2001,2026-02-27 00:11:07,101165
2002,2026-02-27 00:11:07,101097
2003,2026-02-27 00:11:07,101154
2004,2026-02-27 00:11:07,101275
2005,2026-02-27 00:11:07,101275
2006,2026-02-27 00:11:07,101288
2007,2026-02-27 00:11:07,101292
2008,2026-02-27 00:11:07,101371
2009,2026-02-27 00:11:07,101401
2010,2026-02-27 00:11:07,101398
2011,2026-02-27 00:11:07,101431
2012,2026-02-27 00:11:07,101481
2013,2026-02-27 00:11:07,101540
2014,2026-02-27 00:11:07,101609
2015,2026-02-27 00:11:07,101477
2016,2026-02-27 00:11:07,101131
2017,2026-02-27 00:11:07,100877
2018,2026-02-27 00:11:07,100748
2019,2026-02-27 00:11:07,100741
2020,2026-02-27 00:11:07,100819
2021,2026-02-27 00:11:07,100904
2022,2026-02-27 00:11:07,100929
2023,2026-02-27 00:11:07,100945
2024,2026-02-27 00:11:07,100956
2025,2026-02-27 00:11:08,100960
2026,2026-02-27 00:11:08,101070
2027,2026-02-27 00:11:08,101166
2028,2026-02-27 00:11:08,101258
2029,2026-02-27 00:11:08,101284
2030,2026-02-27 00:11:08,101304
2031,2026-02-27 00:11:08,101362
2032,2026-02-27 00:11:08,101449
2033,2026-02-27 00:11:08,101488
2034,2026-02-27 00:11:08,101492
2035,2026-02-27 00:11:08,101536
2036,2026-02-27 00:11:08,101487
2037,2026-02-27 00:11:08,101248
2038,2026-02-27 00:11:08,100920
2039,2026-02-27 00:11:08,100681
2040,2026-02-27 00:11:08,100687
2041,2026-02-27 00:11:08,100735
2042,2026-02-27 00:11:08,100720
2043,2026-02-27 00:11:08,100788
2044,2026-02-27 00:11:08,100917
2045,2026-02-27 00:11:08,100864
2046,2026-02-27 00:11:08,100868
2047,2026-02-27 00:11:08,100995
2048,2026-02-27 00:11:08,101096
2049,2026-02-27 00:11:08,101188
2050,2026-02-27 00:11:09,101355
2051,2026-02-27 00:11:09,101388
2052,2026-02-27 00:11:09,101467
2053,2026-02-27 00:11:09,101592
2054,2026-02-27 00:11:09,101638
2055,2026-02-27 00:11:09,101682
2056,2026-02-27 00:11:09,101778
2057,2026-02-27 00:11:09,101847
2058,2026-02-27 00:11:09,101828
2059,2026-02-27 00:11:09,101492
2060,2026-02-27 00:11:09,101180
