Packet_Number,Timestamp,Data
1,2026-02-27 00:09:47,105962
2,2026-02-27 00:09:47,105968
3,2026-02-27 00:09:47,105957
4,2026-02-27 00:09:47,105982
5,2026-02-27 00:09:47,105982
6,2026-02-27 00:09:47,105971
7,2026-02-27 00:09:47,105979
8,2026-02-27 00:09:47,105980
9,2026-02-27 00:09:47,105969
10,2026-02-27 00:09:47,106012
11,2026-02-27 00:09:47,106022
12,2026-02-27 00:09:47,106044
13,2026-02-27 00:09:47,106042
14,2026-02-27 00:09:47,106049
15,2026-02-27 00:09:47,106052
16,2026-02-27 00:09:47,106084
17,2026-02-27 00:09:47,106095
18,2026-02-27 00:09:47,106113
19,2026-02-27 00:09:47,106122
20,2026-02-27 00:09:47,106139
21,2026-02-27 00:09:47,106126
22,2026-02-27 00:09:47,106150
23,2026-02-27 00:09:47,106120
24,2026-02-27 00:09:48,106038
25,2026-02-27 00:09:48,106002
26,2026-02-27 00:09:48,105993
27,2026-02-27 00:09:48,105995
28,2026-02-27 00:09:48,106015
29,2026-02-27 00:09:48,106028
30,2026-02-27 00:09:48,106019
31,2026-02-27 00:09:48,106019
32,2026-02-27 00:09:48,106005
33,2026-02-27 00:09:48,106000
34,2026-02-27 00:09:48,106028
35,2026-02-27 00:09:48,106050
36,2026-02-27 00:09:48,106062
37,2026-02-27 00:09:48,106070
38,2026-02-27 00:09:48,106066
39,2026-02-27 00:09:48,106050
40,2026-02-27 00:09:48,106086
41,2026-02-27 00:09:48,106110
42,2026-02-27 00:09:48,106139
43,2026-02-27 00:09:48,106151
44,2026-02-27 00:09:48,106159
45,2026-02-27 00:09:48,106182
46,2026-02-27 00:09:48,106159
47,2026-02-27 00:09:48,106065
48,2026-02-27 00:09:48,106030
49,2026-02-27 00:09:49,106027
50,2026-02-27 00:09:49,106030
51,2026-02-27 00:09:49,106018
52,2026-02-27 00:09:49,106044
53,2026-02-27 00:09:49,106044
54,2026-02-27 00:09:49,106040
55,2026-02-27 00:09:49,106039
56,2026-02-27 00:09:49,106026
57,2026-02-27 00:09:49,106043
58,2026-02-27 00:09:49,106050
59,2026-02-27 00:09:49,106074
60,2026-02-27 00:09:49,106084
61,2026-02-27 00:09:49,106109
62,2026-02-27 00:09:49,106098
63,2026-02-27 00:09:49,106115
64,2026-02-27 00:09:49,106139
65,2026-02-27 00:09:49,106141
66,2026-02-27 00:09:49,106155
67,2026-02-27 00:09:49,106155
68,2026-02-27 00:09:49,106127
69,2026-02-27 00:09:49,106127
70,2026-02-27 00:09:49,106058
71,2026-02-27 00:09:49,106022
72,2026-02-27 00:09:49,105999
73,2026-02-27 00:09:49,106019
74,2026-02-27 00:09:49,106042
75,2026-02-27 00:09:50,106015
76,2026-02-27 00:09:50,106053
77,2026-02-27 00:09:50,106050
78,2026-02-27 00:09:50,106027
79,2026-02-27 00:09:50,106008
80,2026-02-27 00:09:50,106005
81,2026-02-27 00:09:50,106001
82,2026-02-27 00:09:50,106016
83,2026-02-27 00:09:50,106049
84,2026-02-27 00:09:50,106068
85,2026-02-27 00:09:50,106093
86,2026-02-27 00:09:50,106108
87,2026-02-27 00:09:50,106104
88,2026-02-27 00:09:50,106152
89,2026-02-27 00:09:50,106167
90,2026-02-27 00:09:50,106199
91,2026-02-27 00:09:50,106217
92,2026-02-27 00:09:50,106189
93,2026-02-27 00:09:50,106055
94,2026-02-27 00:09:50,106020
95,2026-02-27 00:09:50,106013
96,2026-02-27 00:09:50,106027
97,2026-02-27 00:09:50,106034
98,2026-02-27 00:09:50,106043
99,2026-02-27 00:09:51,106003
100,2026-02-27 00:09:51,106020
101,2026-02-27 00:09:51,106014
102,2026-02-27 00:09:51,106032
103,2026-02-27 00:09:51,106048
104,2026-02-27 00:09:51,106052
105,2026-02-27 00:09:51,106023
106,2026-02-27 00:09:51,106046
107,2026-02-27 00:09:51,106069
108,2026-02-27 00:09:51,106059
109,2026-02-27 00:09:51,106067
110,2026-02-27 00:09:51,106070
111,2026-02-27 00:09:51,106055
112,2026-02-27 00:09:51,106094
113,2026-02-27 00:09:51,106072
114,2026-02-27 00:09:51,106001
115,2026-02-27 00:09:51,105950
116,2026-02-27 00:09:51,105925
117,2026-02-27 00:09:51,105911
118,2026-02-27 00:09:51,105943
119,2026-02-27 00:09:51,105957
120,2026-02-27 00:09:51,105946
121,2026-02-27 00:09:51,105941
122,2026-02-27 00:09:51,105924
123,2026-02-27 00:09:51,105895
124,2026-02-27 00:09:52,105933
125,2026-02-27 00:09:52,105939
126,2026-02-27 00:09:52,105954
127,2026-02-27 00:09:52,105961
128,2026-02-27 00:09:52,105962
129,2026-02-27 00:09:52,105955
130,2026-02-27 00:09:52,105992
131,2026-02-27 00:09:52,106010
132,2026-02-27 00:09:52,106015
133,2026-02-27 00:09:52,106027
134,2026-02-27 00:09:52,106021
135,2026-02-27 00:09:52,105903
136,2026-02-27 00:09:52,105854
137,2026-02-27 00:09:52,105820
138,2026-02-27 00:09:52,105835
139,2026-02-27 00:09:52,105816
140,2026-02-27 00:09:52,105801
141,2026-02-27 00:09:52,105782
142,2026-02-27 00:09:52,105787
143,2026-02-27 00:09:52,105787
144,2026-02-27 00:09:52,105797
145,2026-02-27 00:09:52,105806
146,2026-02-27 00:09:52,105822
147,2026-02-27 00:09:52,105821
148,2026-02-27 00:09:52,105845
149,2026-02-27 00:09:52,105867
150,2026-02-27 00:09:53,105889
151,2026-02-27 00:09:53,105906
152,2026-02-27 00:09:53,105911
153,2026-02-27 00:09:53,105907
154,2026-02-27 00:09:53,105936
155,2026-02-27 00:09:53,105947
156,2026-02-27 00:09:53,105955
157,2026-02-27 00:09:53,105878
158,2026-02-27 00:09:53,105774
159,2026-02-27 00:09:53,105711
160,2026-02-27 00:09:53,105719
161,2026-02-27 00:09:53,105718
162,2026-02-27 00:09:53,105717
163,2026-02-27 00:09:53,105718
164,2026-02-27 00:09:53,105710
165,2026-02-27 00:09:53,105671
166,2026-02-27 00:09:53,105688
167,2026-02-27 00:09:53,105690
168,2026-02-27 00:09:53,105730
169,2026-02-27 00:09:53,105733
170,2026-02-27 00:09:53,105732
171,2026-02-27 00:09:53,105736
172,2026-02-27 00:09:53,105756
173,2026-02-27 00:09:53,105771
174,2026-02-27 00:09:53,105785
175,2026-02-27 00:09:54,105784
176,2026-02-27 00:09:54,105798
177,2026-02-27 00:09:54,105806
178,2026-02-27 00:09:54,105835
179,2026-02-27 00:09:54,105866
180,2026-02-27 00:09:54,105884
181,2026-02-27 00:09:54,105864
182,2026-02-27 00:09:54,105770
183,2026-02-27 00:09:54,105729
184,2026-02-27 00:09:54,105738
185,2026-02-27 00:09:54,105746
186,2026-02-27 00:09:54,105751
187,2026-02-27 00:09:54,105745
188,2026-02-27 00:09:54,105730
189,2026-02-27 00:09:54,105734
190,2026-02-27 00:09:54,105741
191,2026-02-27 00:09:54,105741
192,2026-02-27 00:09:54,105741
193,2026-02-27 00:09:54,105752
194,2026-02-27 00:09:54,105768
195,2026-02-27 00:09:54,105755
196,2026-02-27 00:09:54,105776
197,2026-02-27 00:09:54,105791
198,2026-02-27 00:09:54,105819
199,2026-02-27 00:09:55,105823
200,2026-02-27 00:09:55,105829
201,2026-02-27 00:09:55,105830
202,2026-02-27 00:09:55,105848
203,2026-02-27 00:09:55,105852
204,2026-02-27 00:09:55,105867
205,2026-02-27 00:09:55,105873
206,2026-02-27 00:09:55,105886
207,2026-02-27 00:09:55,105868
208,2026-02-27 00:09:55,105813
209,2026-02-27 00:09:55,105767
210,2026-02-27 00:09:55,105756
211,2026-02-27 00:09:55,105769
212,2026-02-27 00:09:55,105766
213,2026-02-27 00:09:55,105729
214,2026-02-27 00:09:55,105754
215,2026-02-27 00:09:55,105745
216,2026-02-27 00:09:55,105753
217,2026-02-27 00:09:55,105755
218,2026-02-27 00:09:55,105766
219,2026-02-27 00:09:55,105729
220,2026-02-27 00:09:55,105749
221,2026-02-27 00:09:55,105751
222,2026-02-27 00:09:55,105762
223,2026-02-27 00:09:55,105770
224,2026-02-27 00:09:55,105786
225,2026-02-27 00:09:56,105761
226,2026-02-27 00:09:56,105779
227,2026-02-27 00:09:56,105778
228,2026-02-27 00:09:56,105786
229,2026-02-27 00:09:56,105810
230,2026-02-27 00:09:56,105815
231,2026-02-27 00:09:56,105781
232,2026-02-27 00:09:56,105731
233,2026-02-27 00:09:56,105672
234,2026-02-27 00:09:56,105669
235,2026-02-27 00:09:56,105677
236,2026-02-27 00:09:56,105674
237,2026-02-27 00:09:56,105650
238,2026-02-27 00:09:56,105664
239,2026-02-27 00:09:56,105635
240,2026-02-27 00:09:56,105623
241,2026-02-27 00:09:56,105620
242,2026-02-27 00:09:56,105628
243,2026-02-27 00:09:56,105594
244,2026-02-27 00:09:56,105618
245,2026-02-27 00:09:56,105623
246,2026-02-27 00:09:56,105623
247,2026-02-27 00:09:56,105635
248,2026-02-27 00:09:56,105632
249,2026-02-27 00:09:56,105633
250,2026-02-27 00:09:57,105666
251,2026-02-27 00:09:57,105670
252,2026-02-27 00:09:57,105677
253,2026-02-27 00:09:57,105687
254,2026-02-27 00:09:57,105710
255,2026-02-27 00:09:57,105684
256,2026-02-27 00:09:57,105715
257,2026-02-27 00:09:57,105669
258,2026-02-27 00:09:57,105617
259,2026-02-27 00:09:57,105645
260,2026-02-27 00:09:57,105644
261,2026-02-27 00:09:57,105648
262,2026-02-27 00:09:57,105658
263,2026-02-27 00:09:57,105668
264,2026-02-27 00:09:57,105652
265,2026-02-27 00:09:57,105638
266,2026-02-27 00:09:57,105641
267,2026-02-27 00:09:57,105630
268,2026-02-27 00:09:57,105649
269,2026-02-27 00:09:57,105659
270,2026-02-27 00:09:57,105672
271,2026-02-27 00:09:57,105677
272,2026-02-27 00:09:57,105679
273,2026-02-27 00:09:57,105671
274,2026-02-27 00:09:58,105703
275,2026-02-27 00:09:58,105707
276,2026-02-27 00:09:58,105714
277,2026-02-27 00:09:58,105719
278,2026-02-27 00:09:58,105700
279,2026-02-27 00:09:58,105685
280,2026-02-27 00:09:58,105710
281,2026-02-27 00:09:58,105706
282,2026-02-27 00:09:58,105698
283,2026-02-27 00:09:58,105654
284,2026-02-27 00:09:58,105598
285,2026-02-27 00:09:58,105590
286,2026-02-27 00:09:58,105618
287,2026-02-27 00:09:58,105619
288,2026-02-27 00:09:58,105616
289,2026-02-27 00:09:58,105637
290,2026-02-27 00:09:58,105602
291,2026-02-27 00:09:58,105596
292,2026-02-27 00:09:58,105604
293,2026-02-27 00:09:58,105595
294,2026-02-27 00:09:58,105601
295,2026-02-27 00:09:58,105604
296,2026-02-27 00:09:58,105598
297,2026-02-27 00:09:58,105597
298,2026-02-27 00:09:58,105603
299,2026-02-27 00:09:58,105614
300,2026-02-27 00:09:59,105604
301,2026-02-27 00:09:59,105615
302,2026-02-27 00:09:59,105591
303,2026-02-27 00:09:59,105615
304,2026-02-27 00:09:59,105622
305,2026-02-27 00:09:59,105624
306,2026-02-27 00:09:59,105629
307,2026-02-27 00:09:59,105622
308,2026-02-27 00:09:59,105539
309,2026-02-27 00:09:59,105518
310,2026-02-27 00:09:59,105516
311,2026-02-27 00:09:59,105536
312,2026-02-27 00:09:59,105533
313,2026-02-27 00:09:59,105533
314,2026-02-27 00:09:59,105534
315,2026-02-27 00:09:59,105522
316,2026-02-27 00:09:59,105509
317,2026-02-27 00:09:59,105507
318,2026-02-27 00:09:59,105491
319,2026-02-27 00:09:59,105491
320,2026-02-27 00:09:59,105510
321,2026-02-27 00:09:59,105485
322,2026-02-27 00:09:59,105484
323,2026-02-27 00:09:59,105493
324,2026-02-27 00:09:59,105495
325,2026-02-27 00:10:00,105503
326,2026-02-27 00:10:00,105494
327,2026-02-27 00:10:00,105478
328,2026-02-27 00:10:00,105489
329,2026-02-27 00:10:00,105504
330,2026-02-27 00:10:00,105506
331,2026-02-27 00:10:00,105503
332,2026-02-27 00:10:00,105512
333,2026-02-27 00:10:00,105470
334,2026-02-27 00:10:00,105426
335,2026-02-27 00:10:00,105377
336,2026-02-27 00:10:00,105363
337,2026-02-27 00:10:00,105358
338,2026-02-27 00:10:00,105350
339,2026-02-27 00:10:00,105318
340,2026-02-27 00:10:00,105324
341,2026-02-27 00:10:00,105322
342,2026-02-27 00:10:00,105309
343,2026-02-27 00:10:00,105304
344,2026-02-27 00:10:00,105297
345,2026-02-27 00:10:00,105270
346,2026-02-27 00:10:00,105298
347,2026-02-27 00:10:00,105301
348,2026-02-27 00:10:00,105300
349,2026-02-27 00:10:01,105304
350,2026-02-27 00:10:01,105333
351,2026-02-27 00:10:01,105293
352,2026-02-27 00:10:01,105322
353,2026-02-27 00:10:01,105330
354,2026-02-27 00:10:01,105345
355,2026-02-27 00:10:01,105343
356,2026-02-27 00:10:01,105341
357,2026-02-27 00:10:01,105334
358,2026-02-27 00:10:01,105344
359,2026-02-27 00:10:01,105289
360,2026-02-27 00:10:01,105234
361,2026-02-27 00:10:01,105197
362,2026-02-27 00:10:01,105204
363,2026-02-27 00:10:01,105170
364,2026-02-27 00:10:01,105185
365,2026-02-27 00:10:01,105164
366,2026-02-27 00:10:01,105155
367,2026-02-27 00:10:01,105146
368,2026-02-27 00:10:01,105136
369,2026-02-27 00:10:01,105110
370,2026-02-27 00:10:01,105136
371,2026-02-27 00:10:01,105163
372,2026-02-27 00:10:01,105158
373,2026-02-27 00:10:01,105162
374,2026-02-27 00:10:01,105170
375,2026-02-27 00:10:02,105146
376,2026-02-27 00:10:02,105185
377,2026-02-27 00:10:02,105194
378,2026-02-27 00:10:02,105208
379,2026-02-27 00:10:02,105225
380,2026-02-27 00:10:02,105241
381,2026-02-27 00:10:02,105231
382,2026-02-27 00:10:02,105246
383,2026-02-27 00:10:02,105183
384,2026-02-27 00:10:02,105117
385,2026-02-27 00:10:02,105088
386,2026-02-27 00:10:02,105060
387,2026-02-27 00:10:02,105033
388,2026-02-27 00:10:02,105040
389,2026-02-27 00:10:02,105034
390,2026-02-27 00:10:02,105015
391,2026-02-27 00:10:02,105010
392,2026-02-27 00:10:02,105003
393,2026-02-27 00:10:02,104990
394,2026-02-27 00:10:02,105021
395,2026-02-27 00:10:02,105049
396,2026-02-27 00:10:02,105060
397,2026-02-27 00:10:02,105091
398,2026-02-27 00:10:02,105112
399,2026-02-27 00:10:03,105124
400,2026-02-27 00:10:03,105158
401,2026-02-27 00:10:03,105186
402,2026-02-27 00:10:03,105210
403,2026-02-27 00:10:03,105230
404,2026-02-27 00:10:03,105227
405,2026-02-27 00:10:03,105227
406,2026-02-27 00:10:03,105267
407,2026-02-27 00:10:03,105223
408,2026-02-27 00:10:03,105144
409,2026-02-27 00:10:03,105101
410,2026-02-27 00:10:03,105088
411,2026-02-27 00:10:03,105096
412,2026-02-27 00:10:03,105107
413,2026-02-27 00:10:03,105109
414,2026-02-27 00:10:03,105115
415,2026-02-27 00:10:03,105117
416,2026-02-27 00:10:03,105111
417,2026-02-27 00:10:03,105118
418,2026-02-27 00:10:03,105148
419,2026-02-27 00:10:03,105165
420,2026-02-27 00:10:03,105187
421,2026-02-27 00:10:03,105208
422,2026-02-27 00:10:03,105203
423,2026-02-27 00:10:03,105225
424,2026-02-27 00:10:04,105244
425,2026-02-27 00:10:04,105261
426,2026-02-27 00:10:04,105284
427,2026-02-27 00:10:04,105291
428,2026-02-27 00:10:04,105288
429,2026-02-27 00:10:04,105307
430,2026-02-27 00:10:04,105321
431,2026-02-27 00:10:04,105325
432,2026-02-27 00:10:04,105260
433,2026-02-27 00:10:04,105191
434,2026-02-27 00:10:04,105191
435,2026-02-27 00:10:04,105122
436,2026-02-27 00:10:04,105120
437,2026-02-27 00:10:04,105139
438,2026-02-27 00:10:04,105115
439,2026-02-27 00:10:04,105093
440,2026-02-27 00:10:04,105082
441,2026-02-27 00:10:04,105046
442,2026-02-27 00:10:04,105036
443,2026-02-27 00:10:04,105070
444,2026-02-27 00:10:04,105080
445,2026-02-27 00:10:04,105095
446,2026-02-27 00:10:04,105124
447,2026-02-27 00:10:04,105126
448,2026-02-27 00:10:04,105153
449,2026-02-27 00:10:04,105175
450,2026-02-27 00:10:05,105196
451,2026-02-27 00:10:05,105220
452,2026-02-27 00:10:05,105224
453,2026-02-27 00:10:05,105233
454,2026-02-27 00:10:05,105262
455,2026-02-27 00:10:05,105287
456,2026-02-27 00:10:05,105281
457,2026-02-27 00:10:05,105208
458,2026-02-27 00:10:05,105156
459,2026-02-27 00:10:05,105099
460,2026-02-27 00:10:05,105115
461,2026-02-27 00:10:05,105107
462,2026-02-27 00:10:05,105111
463,2026-02-27 00:10:05,105111
464,2026-02-27 00:10:05,105113
465,2026-02-27 00:10:05,105095
466,2026-02-27 00:10:05,105112
467,2026-02-27 00:10:05,105145
468,2026-02-27 00:10:05,105166
469,2026-02-27 00:10:05,105188
470,2026-02-27 00:10:05,105215
471,2026-02-27 00:10:05,105239
472,2026-02-27 00:10:05,105282
473,2026-02-27 00:10:05,105302
474,2026-02-27 00:10:06,105317
475,2026-02-27 00:10:06,105336
476,2026-02-27 00:10:06,105350
477,2026-02-27 00:10:06,105341
478,2026-02-27 00:10:06,105372
479,2026-02-27 00:10:06,105386
480,2026-02-27 00:10:06,105414
481,2026-02-27 00:10:06,105447
482,2026-02-27 00:10:06,105489
483,2026-02-27 00:10:06,105460
484,2026-02-27 00:10:06,105429
485,2026-02-27 00:10:06,105357
486,2026-02-27 00:10:06,105343
487,2026-02-27 00:10:06,105340
488,2026-02-27 00:10:06,105318
489,2026-02-27 00:10:06,105268
490,2026-02-27 00:10:06,105306
491,2026-02-27 00:10:06,105307
492,2026-02-27 00:10:06,105303
493,2026-02-27 00:10:06,105321
494,2026-02-27 00:10:06,105332
495,2026-02-27 00:10:06,105341
496,2026-02-27 00:10:06,105390
497,2026-02-27 00:10:06,105400
498,2026-02-27 00:10:06,105416
499,2026-02-27 00:10:07,105431
500,2026-02-27 00:10:07,105442
501,2026-02-27 00:10:07,105444
502,2026-02-27 00:10:07,105490
503,2026-02-27 00:10:07,105495
504,2026-02-27 00:10:07,105519
505,2026-02-27 00:10:07,105550
506,2026-02-27 00:10:07,105573
507,2026-02-27 00:10:07,105561
508,2026-02-27 00:10:07,105592
509,2026-02-27 00:10:07,105602
510,2026-02-27 00:10:07,105602
511,2026-02-27 00:10:07,105611
512,2026-02-27 00:10:07,105616
513,2026-02-27 00:10:07,105557
514,2026-02-27 00:10:07,105496
515,2026-02-27 00:10:07,105445
516,2026-02-27 00:10:07,105407
517,2026-02-27 00:10:07,105406
518,2026-02-27 00:10:07,105375
519,2026-02-27 00:10:07,105354
520,2026-02-27 00:10:07,105363
521,2026-02-27 00:10:07,105365
522,2026-02-27 00:10:07,105381
523,2026-02-27 00:10:07,105390
524,2026-02-27 00:10:07,105388
525,2026-02-27 00:10:08,105401
526,2026-02-27 00:10:08,105422
527,2026-02-27 00:10:08,105439
528,2026-02-27 00:10:08,105431
529,2026-02-27 00:10:08,105430
530,2026-02-27 00:10:08,105433
531,2026-02-27 00:10:08,105428
532,2026-02-27 00:10:08,105490
533,2026-02-27 00:10:08,105504
534,2026-02-27 00:10:08,105489
535,2026-02-27 00:10:08,105514
536,2026-02-27 00:10:08,105506
537,2026-02-27 00:10:08,105513
538,2026-02-27 00:10:08,105531
539,2026-02-27 00:10:08,105561
540,2026-02-27 00:10:08,105524
541,2026-02-27 00:10:08,105444
542,2026-02-27 00:10:08,105356
543,2026-02-27 00:10:08,105313
544,2026-02-27 00:10:08,105295
545,2026-02-27 00:10:08,105268
546,2026-02-27 00:10:08,105269
547,2026-02-27 00:10:08,105278
548,2026-02-27 00:10:08,105269
549,2026-02-27 00:10:08,105298
550,2026-02-27 00:10:09,105309
551,2026-02-27 00:10:09,105320
552,2026-02-27 00:10:09,105355
553,2026-02-27 00:10:09,105379
554,2026-02-27 00:10:09,105371
555,2026-02-27 00:10:09,105383
556,2026-02-27 00:10:09,105383
557,2026-02-27 00:10:09,105411
558,2026-02-27 00:10:09,105435
559,2026-02-27 00:10:09,105445
560,2026-02-27 00:10:09,105456
561,2026-02-27 00:10:09,105455
562,2026-02-27 00:10:09,105476
563,2026-02-27 00:10:09,105519
564,2026-02-27 00:10:09,105528
565,2026-02-27 00:10:09,105539
566,2026-02-27 00:10:09,105548
567,2026-02-27 00:10:09,105559
568,2026-02-27 00:10:09,105529
569,2026-02-27 00:10:09,105445
570,2026-02-27 00:10:09,105389
571,2026-02-27 00:10:09,105372
572,2026-02-27 00:10:09,105362
573,2026-02-27 00:10:09,105323
574,2026-02-27 00:10:10,105348
575,2026-02-27 00:10:10,105351
576,2026-02-27 00:10:10,105335
577,2026-02-27 00:10:10,105335
578,2026-02-27 00:10:10,105339
579,2026-02-27 00:10:10,105300
580,2026-02-27 00:10:10,105294
581,2026-02-27 00:10:10,105289
582,2026-02-27 00:10:10,105309
583,2026-02-27 00:10:10,105319
584,2026-02-27 00:10:10,105316
585,2026-02-27 00:10:10,105294
586,2026-02-27 00:10:10,105344
587,2026-02-27 00:10:10,105353
588,2026-02-27 00:10:10,105360
589,2026-02-27 00:10:10,105376
590,2026-02-27 00:10:10,105378
591,2026-02-27 00:10:10,105364
592,2026-02-27 00:10:10,105427
593,2026-02-27 00:10:10,105448
594,2026-02-27 00:10:10,105470
595,2026-02-27 00:10:10,105408
596,2026-02-27 00:10:10,105345
597,2026-02-27 00:10:10,105309
598,2026-02-27 00:10:10,105326
599,2026-02-27 00:10:10,105340
600,2026-02-27 00:10:11,105348
601,2026-02-27 00:10:11,105336
602,2026-02-27 00:10:11,105333
603,2026-02-27 00:10:11,105288
604,2026-02-27 00:10:11,105313
605,2026-02-27 00:10:11,105327
606,2026-02-27 00:10:11,105334
607,2026-02-27 00:10:11,105350
608,2026-02-27 00:10:11,105352
609,2026-02-27 00:10:11,105333
610,2026-02-27 00:10:11,105356
611,2026-02-27 00:10:11,105369
612,2026-02-27 00:10:11,105374
613,2026-02-27 00:10:11,105391
614,2026-02-27 00:10:11,105405
615,2026-02-27 00:10:11,105386
616,2026-02-27 00:10:11,105441
617,2026-02-27 00:10:11,105462
618,2026-02-27 00:10:11,105478
619,2026-02-27 00:10:11,105433
620,2026-02-27 00:10:11,105339
621,2026-02-27 00:10:11,105230
622,2026-02-27 00:10:11,105244
623,2026-02-27 00:10:12,105233
624,2026-02-27 00:10:12,105251
625,2026-02-27 00:10:12,105252
626,2026-02-27 00:10:12,105249
627,2026-02-27 00:10:12,105232
628,2026-02-27 00:10:12,105246
629,2026-02-27 00:10:12,105255
630,2026-02-27 00:10:12,105268
631,2026-02-27 00:10:12,105296
632,2026-02-27 00:10:12,105309
633,2026-02-27 00:10:12,105293
634,2026-02-27 00:10:12,105331
635,2026-02-27 00:10:12,105338
636,2026-02-27 00:10:12,105360
637,2026-02-27 00:10:12,105367
638,2026-02-27 00:10:12,105378
639,2026-02-27 00:10:12,105394
640,2026-02-27 00:10:12,105427
641,2026-02-27 00:10:12,105452
642,2026-02-27 00:10:12,105467
643,2026-02-27 00:10:12,105464
644,2026-02-27 00:10:12,105367
645,2026-02-27 00:10:12,105253
646,2026-02-27 00:10:12,105225
647,2026-02-27 00:10:12,105240
648,2026-02-27 00:10:12,105232
649,2026-02-27 00:10:13,105218
650,2026-02-27 00:10:13,105211
651,2026-02-27 00:10:13,105203
652,2026-02-27 00:10:13,105213
653,2026-02-27 00:10:13,105210
654,2026-02-27 00:10:13,105238
655,2026-02-27 00:10:13,105253
656,2026-02-27 00:10:13,105250
657,2026-02-27 00:10:13,105263
658,2026-02-27 00:10:13,105271
659,2026-02-27 00:10:13,105275
660,2026-02-27 00:10:13,105294
661,2026-02-27 00:10:13,105302
662,2026-02-27 00:10:13,105305
663,2026-02-27 00:10:13,105316
664,2026-02-27 00:10:13,105323
665,2026-02-27 00:10:13,105330
666,2026-02-27 00:10:13,105333
667,2026-02-27 00:10:13,105343
668,2026-02-27 00:10:13,105305
669,2026-02-27 00:10:13,105212
670,2026-02-27 00:10:13,105155
671,2026-02-27 00:10:13,105144
672,2026-02-27 00:10:13,105143
673,2026-02-27 00:10:13,105138
674,2026-02-27 00:10:13,105133
675,2026-02-27 00:10:14,105145
676,2026-02-27 00:10:14,105171
677,2026-02-27 00:10:14,105145
678,2026-02-27 00:10:14,105145
679,2026-02-27 00:10:14,105147
680,2026-02-27 00:10:14,105170
681,2026-02-27 00:10:14,105165
682,2026-02-27 00:10:14,105183
683,2026-02-27 00:10:14,105213
684,2026-02-27 00:10:14,105237
685,2026-02-27 00:10:14,105261
686,2026-02-27 00:10:14,105251
687,2026-02-27 00:10:14,105262
688,2026-02-27 00:10:14,105305
689,2026-02-27 00:10:14,105319
690,2026-02-27 00:10:14,105317
691,2026-02-27 00:10:14,105324
692,2026-02-27 00:10:14,105329
693,2026-02-27 00:10:14,105226
694,2026-02-27 00:10:14,105153
695,2026-02-27 00:10:14,105104
696,2026-02-27 00:10:14,105111
697,2026-02-27 00:10:14,105112
698,2026-02-27 00:10:14,105105
699,2026-02-27 00:10:15,105084
700,2026-02-27 00:10:15,105123
701,2026-02-27 00:10:15,105123
702,2026-02-27 00:10:15,105116
703,2026-02-27 00:10:15,105137
704,2026-02-27 00:10:15,105173
705,2026-02-27 00:10:15,105153
706,2026-02-27 00:10:15,105202
707,2026-02-27 00:10:15,105221
708,2026-02-27 00:10:15,105229
709,2026-02-27 00:10:15,105251
710,2026-02-27 00:10:15,105264
711,2026-02-27 00:10:15,105243
712,2026-02-27 00:10:15,105276
713,2026-02-27 00:10:15,105296
714,2026-02-27 00:10:15,105295
715,2026-02-27 00:10:15,105327
716,2026-02-27 00:10:15,105336
717,2026-02-27 00:10:15,105334
718,2026-02-27 00:10:15,105242
719,2026-02-27 00:10:15,105125
720,2026-02-27 00:10:15,105082
721,2026-02-27 00:10:15,105072
722,2026-02-27 00:10:15,105074
723,2026-02-27 00:10:15,105049
724,2026-02-27 00:10:16,105053
725,2026-02-27 00:10:16,105072
726,2026-02-27 00:10:16,105074
727,2026-02-27 00:10:16,105059
728,2026-02-27 00:10:16,105080
729,2026-02-27 00:10:16,105072
730,2026-02-27 00:10:16,105127
731,2026-02-27 00:10:16,105146
732,2026-02-27 00:10:16,105169
733,2026-02-27 00:10:16,105186
734,2026-02-27 00:10:16,105195
735,2026-02-27 00:10:16,105176
736,2026-02-27 00:10:16,105228
737,2026-02-27 00:10:16,105240
738,2026-02-27 00:10:16,105253
739,2026-02-27 00:10:16,105256
740,2026-02-27 00:10:16,105266
741,2026-02-27 00:10:16,105259
742,2026-02-27 00:10:16,105276
743,2026-02-27 00:10:16,105250
744,2026-02-27 00:10:16,105223
745,2026-02-27 00:10:16,105168
746,2026-02-27 00:10:16,105065
747,2026-02-27 00:10:16,104946
748,2026-02-27 00:10:16,104942
749,2026-02-27 00:10:16,104970
750,2026-02-27 00:10:17,104955
751,2026-02-27 00:10:17,104950
752,2026-02-27 00:10:17,104968
753,2026-02-27 00:10:17,104956
754,2026-02-27 00:10:17,104965
755,2026-02-27 00:10:17,104988
756,2026-02-27 00:10:17,104996
757,2026-02-27 00:10:17,105032
758,2026-02-27 00:10:17,105053
759,2026-02-27 00:10:17,105045
760,2026-02-27 00:10:17,105067
761,2026-02-27 00:10:17,105079
762,2026-02-27 00:10:17,105109
763,2026-02-27 00:10:17,105136
764,2026-02-27 00:10:17,105148
765,2026-02-27 00:10:17,105160
766,2026-02-27 00:10:17,105201
767,2026-02-27 00:10:17,105231
768,2026-02-27 00:10:17,105256
769,2026-02-27 00:10:17,105274
770,2026-02-27 00:10:17,105277
771,2026-02-27 00:10:17,105233
772,2026-02-27 00:10:17,105147
773,2026-02-27 00:10:17,105050
774,2026-02-27 00:10:18,105037
775,2026-02-27 00:10:18,105039
776,2026-02-27 00:10:18,105036
777,2026-02-27 00:10:18,105014
778,2026-02-27 00:10:18,105025
779,2026-02-27 00:10:18,105028
780,2026-02-27 00:10:18,105029
781,2026-02-27 00:10:18,105045
782,2026-02-27 00:10:18,105056
783,2026-02-27 00:10:18,105071
784,2026-02-27 00:10:18,105102
785,2026-02-27 00:10:18,105130
786,2026-02-27 00:10:18,105148
787,2026-02-27 00:10:18,105163
788,2026-02-27 00:10:18,105165
789,2026-02-27 00:10:18,105186
790,2026-02-27 00:10:18,105202
791,2026-02-27 00:10:18,105218
792,2026-02-27 00:10:18,105236
793,2026-02-27 00:10:18,105236
794,2026-02-27 00:10:18,105229
795,2026-02-27 00:10:18,105234
796,2026-02-27 00:10:18,105268
797,2026-02-27 00:10:18,105304
798,2026-02-27 00:10:18,105312
799,2026-02-27 00:10:19,105312
800,2026-02-27 00:10:19,105213
801,2026-02-27 00:10:19,105077
802,2026-02-27 00:10:19,105027
803,2026-02-27 00:10:19,105021
804,2026-02-27 00:10:19,105009
805,2026-02-27 00:10:19,105016
806,2026-02-27 00:10:19,105041
807,2026-02-27 00:10:19,104998
808,2026-02-27 00:10:19,105004
809,2026-02-27 00:10:19,105025
810,2026-02-27 00:10:19,105029
811,2026-02-27 00:10:19,105040
812,2026-02-27 00:10:19,105063
813,2026-02-27 00:10:19,105063
814,2026-02-27 00:10:19,105098
815,2026-02-27 00:10:19,105112
816,2026-02-27 00:10:19,105117
817,2026-02-27 00:10:19,105121
818,2026-02-27 00:10:19,105139
819,2026-02-27 00:10:19,105115
820,2026-02-27 00:10:19,105149
821,2026-02-27 00:10:19,105166
822,2026-02-27 00:10:19,105170
823,2026-02-27 00:10:19,105191
824,2026-02-27 00:10:19,105205
825,2026-02-27 00:10:20,105171
826,2026-02-27 00:10:20,105118
827,2026-02-27 00:10:20,105007
828,2026-02-27 00:10:20,104930
829,2026-02-27 00:10:20,104912
830,2026-02-27 00:10:20,104920
831,2026-02-27 00:10:20,104902
832,2026-02-27 00:10:20,104937
833,2026-02-27 00:10:20,104928
834,2026-02-27 00:10:20,104926
835,2026-02-27 00:10:20,104941
836,2026-02-27 00:10:20,104999
837,2026-02-27 00:10:20,104997
838,2026-02-27 00:10:20,105055
839,2026-02-27 00:10:20,105069
840,2026-02-27 00:10:20,105086
841,2026-02-27 00:10:20,105108
842,2026-02-27 00:10:20,105119
843,2026-02-27 00:10:20,105122
844,2026-02-27 00:10:20,105181
845,2026-02-27 00:10:20,105198
846,2026-02-27 00:10:20,105223
847,2026-02-27 00:10:20,105231
848,2026-02-27 00:10:20,105261
849,2026-02-27 00:10:20,105256
850,2026-02-27 00:10:21,105291
851,2026-02-27 00:10:21,105228
852,2026-02-27 00:10:21,105101
853,2026-02-27 00:10:21,105013
854,2026-02-27 00:10:21,104987
855,2026-02-27 00:10:21,104954
856,2026-02-27 00:10:21,104964
857,2026-02-27 00:10:21,104971
858,2026-02-27 00:10:21,104980
859,2026-02-27 00:10:21,104976
860,2026-02-27 00:10:21,104974
861,2026-02-27 00:10:21,104961
862,2026-02-27 00:10:21,105003
863,2026-02-27 00:10:21,105034
864,2026-02-27 00:10:21,105033
865,2026-02-27 00:10:21,105031
866,2026-02-27 00:10:21,105066
867,2026-02-27 00:10:21,105032
868,2026-02-27 00:10:21,105056
869,2026-02-27 00:10:21,105077
870,2026-02-27 00:10:21,105108
871,2026-02-27 00:10:21,105111
872,2026-02-27 00:10:21,105129
873,2026-02-27 00:10:21,105120
874,2026-02-27 00:10:22,105158
875,2026-02-27 00:10:22,105149
876,2026-02-27 00:10:22,105054
877,2026-02-27 00:10:22,104926
878,2026-02-27 00:10:22,104869
879,2026-02-27 00:10:22,104857
880,2026-02-27 00:10:22,104872
881,2026-02-27 00:10:22,104878
882,2026-02-27 00:10:22,104885
883,2026-02-27 00:10:22,104876
884,2026-02-27 00:10:22,104848
885,2026-02-27 00:10:22,104851
886,2026-02-27 00:10:22,104892
887,2026-02-27 00:10:22,104909
888,2026-02-27 00:10:22,104949
889,2026-02-27 00:10:22,104978
890,2026-02-27 00:10:22,104977
891,2026-02-27 00:10:22,104990
892,2026-02-27 00:10:22,105028
893,2026-02-27 00:10:22,105068
894,2026-02-27 00:10:22,105086
895,2026-02-27 00:10:22,105091
896,2026-02-27 00:10:22,105083
897,2026-02-27 00:10:22,105114
898,2026-02-27 00:10:22,105132
899,2026-02-27 00:10:22,105051
900,2026-02-27 00:10:23,104915
901,2026-02-27 00:10:23,104847
902,2026-02-27 00:10:23,104811
903,2026-02-27 00:10:23,104823
904,2026-02-27 00:10:23,104847
905,2026-02-27 00:10:23,104858
906,2026-02-27 00:10:23,104848
907,2026-02-27 00:10:23,104866
908,2026-02-27 00:10:23,104841
909,2026-02-27 00:10:23,104855
910,2026-02-27 00:10:23,104891
911,2026-02-27 00:10:23,104910
912,2026-02-27 00:10:23,104927
913,2026-02-27 00:10:23,104938
914,2026-02-27 00:10:23,104941
915,2026-02-27 00:10:23,104968
916,2026-02-27 00:10:23,104991
917,2026-02-27 00:10:23,105002
918,2026-02-27 00:10:23,105019
919,2026-02-27 00:10:23,105042
920,2026-02-27 00:10:23,105042
921,2026-02-27 00:10:23,105058
922,2026-02-27 00:10:23,105080
923,2026-02-27 00:10:23,105063
924,2026-02-27 00:10:24,104941
925,2026-02-27 00:10:24,104820
926,2026-02-27 00:10:24,104766
927,2026-02-27 00:10:24,104770
928,2026-02-27 00:10:24,104778
929,2026-02-27 00:10:24,104763
930,2026-02-27 00:10:24,104763
931,2026-02-27 00:10:24,104758
932,2026-02-27 00:10:24,104750
933,2026-02-27 00:10:24,104725
934,2026-02-27 00:10:24,104755
935,2026-02-27 00:10:24,104779
936,2026-02-27 00:10:24,104831
937,2026-02-27 00:10:24,104849
938,2026-02-27 00:10:24,104854
939,2026-02-27 00:10:24,104845
940,2026-02-27 00:10:24,104879
941,2026-02-27 00:10:24,104848
942,2026-02-27 00:10:24,104806
943,2026-02-27 00:10:24,104804
944,2026-02-27 00:10:24,104825
945,2026-02-27 00:10:24,104812
946,2026-02-27 00:10:24,104822
947,2026-02-27 00:10:24,104726
948,2026-02-27 00:10:24,104621
949,2026-02-27 00:10:25,104557
950,2026-02-27 00:10:25,104555
951,2026-02-27 00:10:25,104557
952,2026-02-27 00:10:25,104591
953,2026-02-27 00:10:25,104600
954,2026-02-27 00:10:25,104586
955,2026-02-27 00:10:25,104588
956,2026-02-27 00:10:25,104593
957,2026-02-27 00:10:25,104586
958,2026-02-27 00:10:25,104640
959,2026-02-27 00:10:25,104658
960,2026-02-27 00:10:25,104667
961,2026-02-27 00:10:25,104681
962,2026-02-27 00:10:25,104695
963,2026-02-27 00:10:25,104705
964,2026-02-27 00:10:25,104731
965,2026-02-27 00:10:25,104733
966,2026-02-27 00:10:25,104780
967,2026-02-27 00:10:25,104803
968,2026-02-27 00:10:25,104838
969,2026-02-27 00:10:25,104875
970,2026-02-27 00:10:25,104887
971,2026-02-27 00:10:25,104760
972,2026-02-27 00:10:25,104619
973,2026-02-27 00:10:25,104585
974,2026-02-27 00:10:25,104580
975,2026-02-27 00:10:26,104555
976,2026-02-27 00:10:26,104590
977,2026-02-27 00:10:26,104596
978,2026-02-27 00:10:26,104604
979,2026-02-27 00:10:26,104617
980,2026-02-27 00:10:26,104633
981,2026-02-27 00:10:26,104639
982,2026-02-27 00:10:26,104685
983,2026-02-27 00:10:26,104701
984,2026-02-27 00:10:26,104723
985,2026-02-27 00:10:26,104747
986,2026-02-27 00:10:26,104788
987,2026-02-27 00:10:26,104781
988,2026-02-27 00:10:26,104836
989,2026-02-27 00:10:26,104839
990,2026-02-27 00:10:26,104886
991,2026-02-27 00:10:26,104915
992,2026-02-27 00:10:26,104917
993,2026-02-27 00:10:26,104914
994,2026-02-27 00:10:26,104973
995,2026-02-27 00:10:26,104988
996,2026-02-27 00:10:26,104961
997,2026-02-27 00:10:26,104823
998,2026-02-27 00:10:26,104695
999,2026-02-27 00:10:26,104631
1000,2026-02-27 00:10:27,104627
1001,2026-02-27 00:10:27,104639
1002,2026-02-27 00:10:27,104647
1003,2026-02-27 00:10:27,104645
1004,2026-02-27 00:10:27,104649
1005,2026-02-27 00:10:27,104639
1006,2026-02-27 00:10:27,104639
1007,2026-02-27 00:10:27,104646
1008,2026-02-27 00:10:27,104688
1009,2026-02-27 00:10:27,104725
1010,2026-02-27 00:10:27,104723
1011,2026-02-27 00:10:27,104718
1012,2026-02-27 00:10:27,104754
1013,2026-02-27 00:10:27,104766
1014,2026-02-27 00:10:27,104789
1015,2026-02-27 00:10:27,104815
1016,2026-02-27 00:10:27,104814
1017,2026-02-27 00:10:27,104839
1018,2026-02-27 00:10:27,104896
1019,2026-02-27 00:10:27,104912
1020,2026-02-27 00:10:27,104925
1021,2026-02-27 00:10:27,104945
1022,2026-02-27 00:10:27,104859
1023,2026-02-27 00:10:27,104726
1024,2026-02-27 00:10:28,104646
1025,2026-02-27 00:10:28,104615
1026,2026-02-27 00:10:28,104640
1027,2026-02-27 00:10:28,104632
1028,2026-02-27 00:10:28,104630
1029,2026-02-27 00:10:28,104638
1030,2026-02-27 00:10:28,104664
1031,2026-02-27 00:10:28,104674
1032,2026-02-27 00:10:28,104688
1033,2026-02-27 00:10:28,104720
1034,2026-02-27 00:10:28,104744
1035,2026-02-27 00:10:28,104777
1036,2026-02-27 00:10:28,104809
1037,2026-02-27 00:10:28,104852
1038,2026-02-27 00:10:28,104871
1039,2026-02-27 00:10:28,104864
1040,2026-02-27 00:10:28,104873
1041,2026-02-27 00:10:28,104873
1042,2026-02-27 00:10:28,104905
1043,2026-02-27 00:10:28,104929
1044,2026-02-27 00:10:28,104935
1045,2026-02-27 00:10:28,104917
1046,2026-02-27 00:10:28,104920
1047,2026-02-27 00:10:28,104928
1048,2026-02-27 00:10:28,104961
1049,2026-02-27 00:10:29,104918
1050,2026-02-27 00:10:29,104769
1051,2026-02-27 00:10:29,104668
1052,2026-02-27 00:10:29,104651
1053,2026-02-27 00:10:29,104631
1054,2026-02-27 00:10:29,104614
1055,2026-02-27 00:10:29,104608
1056,2026-02-27 00:10:29,104631
1057,2026-02-27 00:10:29,104627
1058,2026-02-27 00:10:29,104642
1059,2026-02-27 00:10:29,104624
1060,2026-02-27 00:10:29,104671
1061,2026-02-27 00:10:29,104702
1062,2026-02-27 00:10:29,104747
1063,2026-02-27 00:10:29,104758
1064,2026-02-27 00:10:29,104775
1065,2026-02-27 00:10:29,104760
1066,2026-02-27 00:10:29,104787
1067,2026-02-27 00:10:29,104804
1068,2026-02-27 00:10:29,104827
1069,2026-02-27 00:10:29,104862
1070,2026-02-27 00:10:29,104890
1071,2026-02-27 00:10:29,104879
1072,2026-02-27 00:10:29,104919
1073,2026-02-27 00:10:29,104940
1074,2026-02-27 00:10:29,104959
1075,2026-02-27 00:10:30,104951
1076,2026-02-27 00:10:30,104837
1077,2026-02-27 00:10:30,104661
1078,2026-02-27 00:10:30,104647
1079,2026-02-27 00:10:30,104654
1080,2026-02-27 00:10:30,104666
1081,2026-02-27 00:10:30,104658
1082,2026-02-27 00:10:30,104672
1083,2026-02-27 00:10:30,104658
1084,2026-02-27 00:10:30,104666
1085,2026-02-27 00:10:30,104672
1086,2026-02-27 00:10:30,104696
1087,2026-02-27 00:10:30,104726
1088,2026-02-27 00:10:30,104748
1089,2026-02-27 00:10:30,104741
1090,2026-02-27 00:10:30,104807
1091,2026-02-27 00:10:30,104818
1092,2026-02-27 00:10:30,104842
1093,2026-02-27 00:10:30,104858
1094,2026-02-27 00:10:30,104879
1095,2026-02-27 00:10:30,104881
1096,2026-02-27 00:10:30,104907
1097,2026-02-27 00:10:30,104956
1098,2026-02-27 00:10:30,104972
1099,2026-02-27 00:10:31,104960
1100,2026-02-27 00:10:31,104924
1101,2026-02-27 00:10:31,104776
1102,2026-02-27 00:10:31,104643
1103,2026-02-27 00:10:31,104591
1104,2026-02-27 00:10:31,104601
1105,2026-02-27 00:10:31,104615
1106,2026-02-27 00:10:31,104604
1107,2026-02-27 00:10:31,104591
1108,2026-02-27 00:10:31,104619
1109,2026-02-27 00:10:31,104638
1110,2026-02-27 00:10:31,104653
1111,2026-02-27 00:10:31,104663
1112,2026-02-27 00:10:31,104689
1113,2026-02-27 00:10:31,104706
1114,2026-02-27 00:10:31,104760
1115,2026-02-27 00:10:31,104789
1116,2026-02-27 00:10:31,104814
1117,2026-02-27 00:10:31,104841
1118,2026-02-27 00:10:31,104839
1119,2026-02-27 00:10:31,104863
1120,2026-02-27 00:10:31,104908
1121,2026-02-27 00:10:31,104931
1122,2026-02-27 00:10:31,104947
1123,2026-02-27 00:10:31,104968
1124,2026-02-27 00:10:31,104976
1125,2026-02-27 00:10:32,104971
1126,2026-02-27 00:10:32,104889
1127,2026-02-27 00:10:32,104748
1128,2026-02-27 00:10:32,104686
1129,2026-02-27 00:10:32,104685
1130,2026-02-27 00:10:32,104675
1131,2026-02-27 00:10:32,104684
1132,2026-02-27 00:10:32,104714
1133,2026-02-27 00:10:32,104708
1134,2026-02-27 00:10:32,104715
1135,2026-02-27 00:10:32,104735
1136,2026-02-27 00:10:32,104723
1137,2026-02-27 00:10:32,104749
1138,2026-02-27 00:10:32,104799
1139,2026-02-27 00:10:32,104832
1140,2026-02-27 00:10:32,104852
1141,2026-02-27 00:10:32,104868
1142,2026-02-27 00:10:32,104861
1143,2026-02-27 00:10:32,104884
1144,2026-02-27 00:10:32,104917
1145,2026-02-27 00:10:32,104938
1146,2026-02-27 00:10:32,104954
1147,2026-02-27 00:10:32,104974
1148,2026-02-27 00:10:32,104980
1149,2026-02-27 00:10:33,105002
1150,2026-02-27 00:10:33,105009
1151,2026-02-27 00:10:33,104901
1152,2026-02-27 00:10:33,104763
1153,2026-02-27 00:10:33,104683
1154,2026-02-27 00:10:33,104660
1155,2026-02-27 00:10:33,104669
1156,2026-02-27 00:10:33,104684
1157,2026-02-27 00:10:33,104705
1158,2026-02-27 00:10:33,104692
1159,2026-02-27 00:10:33,104678
1160,2026-02-27 00:10:33,104662
1161,2026-02-27 00:10:33,104704
1162,2026-02-27 00:10:33,104729
1163,2026-02-27 00:10:33,104729
1164,2026-02-27 00:10:33,104759
1165,2026-02-27 00:10:33,104780
1166,2026-02-27 00:10:33,104792
1167,2026-02-27 00:10:33,104789
1168,2026-02-27 00:10:33,104807
1169,2026-02-27 00:10:33,104847
1170,2026-02-27 00:10:33,104872
1171,2026-02-27 00:10:33,104901
1172,2026-02-27 00:10:33,104910
1173,2026-02-27 00:10:33,104933
1174,2026-02-27 00:10:34,104968
1175,2026-02-27 00:10:34,104958
1176,2026-02-27 00:10:34,104839
1177,2026-02-27 00:10:34,104706
1178,2026-02-27 00:10:34,104635
1179,2026-02-27 00:10:34,104618
1180,2026-02-27 00:10:34,104655
1181,2026-02-27 00:10:34,104660
1182,2026-02-27 00:10:34,104653
1183,2026-02-27 00:10:34,104660
1184,2026-02-27 00:10:34,104657
1185,2026-02-27 00:10:34,104648
1186,2026-02-27 00:10:34,104696
1187,2026-02-27 00:10:34,104738
1188,2026-02-27 00:10:34,104786
1189,2026-02-27 00:10:34,104799
1190,2026-02-27 00:10:34,104814
1191,2026-02-27 00:10:34,104815
1192,2026-02-27 00:10:34,104861
1193,2026-02-27 00:10:34,104883
1194,2026-02-27 00:10:34,104918
1195,2026-02-27 00:10:34,104944
1196,2026-02-27 00:10:34,104970
1197,2026-02-27 00:10:34,104955
1198,2026-02-27 00:10:34,105003
1199,2026-02-27 00:10:34,105012
1200,2026-02-27 00:10:35,104942
1201,2026-02-27 00:10:35,104785
1202,2026-02-27 00:10:35,104708
1203,2026-02-27 00:10:35,104663
1204,2026-02-27 00:10:35,104689
1205,2026-02-27 00:10:35,104694
1206,2026-02-27 00:10:35,104693
1207,2026-02-27 00:10:35,104696
1208,2026-02-27 00:10:35,104693
1209,2026-02-27 00:10:35,104669
1210,2026-02-27 00:10:35,104705
1211,2026-02-27 00:10:35,104744
1212,2026-02-27 00:10:35,104758
1213,2026-02-27 00:10:35,104790
1214,2026-02-27 00:10:35,104805
1215,2026-02-27 00:10:35,104797
1216,2026-02-27 00:10:35,104837
1217,2026-02-27 00:10:35,104844
1218,2026-02-27 00:10:35,104865
1219,2026-02-27 00:10:35,104888
1220,2026-02-27 00:10:35,104906
1221,2026-02-27 00:10:35,104905
1222,2026-02-27 00:10:35,104954
1223,2026-02-27 00:10:35,104968
1224,2026-02-27 00:10:35,104891
1225,2026-02-27 00:10:36,104734
1226,2026-02-27 00:10:36,104648
1227,2026-02-27 00:10:36,104595
1228,2026-02-27 00:10:36,104618
1229,2026-02-27 00:10:36,104627
1230,2026-02-27 00:10:36,104671
1231,2026-02-27 00:10:36,104649
1232,2026-02-27 00:10:36,104651
1233,2026-02-27 00:10:36,104608
1234,2026-02-27 00:10:36,104636
1235,2026-02-27 00:10:36,104684
1236,2026-02-27 00:10:36,104701
1237,2026-02-27 00:10:36,104717
1238,2026-02-27 00:10:36,104744
1239,2026-02-27 00:10:36,104750
1240,2026-02-27 00:10:36,104773
1241,2026-02-27 00:10:36,104797
1242,2026-02-27 00:10:36,104827
1243,2026-02-27 00:10:36,104847
1244,2026-02-27 00:10:36,104866
1245,2026-02-27 00:10:36,104866
1246,2026-02-27 00:10:36,104911
1247,2026-02-27 00:10:36,104822
1248,2026-02-27 00:10:37,104670
1249,2026-02-27 00:10:37,104569
1250,2026-02-27 00:10:37,104550
1251,2026-02-27 00:10:37,104557
1252,2026-02-27 00:10:37,104568
1253,2026-02-27 00:10:37,104570
1254,2026-02-27 00:10:37,104593
1255,2026-02-27 00:10:37,104591
1256,2026-02-27 00:10:37,104580
1257,2026-02-27 00:10:37,104583
1258,2026-02-27 00:10:37,104627
1259,2026-02-27 00:10:37,104647
1260,2026-02-27 00:10:37,104691
1261,2026-02-27 00:10:37,104708
1262,2026-02-27 00:10:37,104709
1263,2026-02-27 00:10:37,104718
1264,2026-02-27 00:10:37,104743
1265,2026-02-27 00:10:37,104770
1266,2026-02-27 00:10:37,104790
1267,2026-02-27 00:10:37,104808
1268,2026-02-27 00:10:37,104823
1269,2026-02-27 00:10:37,104841
1270,2026-02-27 00:10:37,104826
1271,2026-02-27 00:10:37,104695
1272,2026-02-27 00:10:37,104563
1273,2026-02-27 00:10:37,104520
1274,2026-02-27 00:10:37,104517
1275,2026-02-27 00:10:38,104522
1276,2026-02-27 00:10:38,104532
1277,2026-02-27 00:10:38,104548
1278,2026-02-27 00:10:38,104543
1279,2026-02-27 00:10:38,104548
1280,2026-02-27 00:10:38,104555
1281,2026-02-27 00:10:38,104594
1282,2026-02-27 00:10:38,104620
1283,2026-02-27 00:10:38,104620
1284,2026-02-27 00:10:38,104647
1285,2026-02-27 00:10:38,104673
1286,2026-02-27 00:10:38,104692
1287,2026-02-27 00:10:38,104666
1288,2026-02-27 00:10:38,104693
1289,2026-02-27 00:10:38,104721
1290,2026-02-27 00:10:38,104744
1291,2026-02-27 00:10:38,104767
1292,2026-02-27 00:10:38,104793
1293,2026-02-27 00:10:38,104800
1294,2026-02-27 00:10:38,104839
1295,2026-02-27 00:10:38,104815
1296,2026-02-27 00:10:38,104679
1297,2026-02-27 00:10:38,104551
1298,2026-02-27 00:10:38,104503
1299,2026-02-27 00:10:39,104480
1300,2026-02-27 00:10:39,104518
1301,2026-02-27 00:10:39,104531
1302,2026-02-27 00:10:39,104539
1303,2026-02-27 00:10:39,104531
1304,2026-02-27 00:10:39,104532
1305,2026-02-27 00:10:39,104492
1306,2026-02-27 00:10:39,104535
1307,2026-02-27 00:10:39,104579
1308,2026-02-27 00:10:39,104622
1309,2026-02-27 00:10:39,104638
1310,2026-02-27 00:10:39,104644
1311,2026-02-27 00:10:39,104629
1312,2026-02-27 00:10:39,104667
1313,2026-02-27 00:10:39,104689
1314,2026-02-27 00:10:39,104699
1315,2026-02-27 00:10:39,104739
1316,2026-02-27 00:10:39,104755
1317,2026-02-27 00:10:39,104742
1318,2026-02-27 00:10:39,104806
1319,2026-02-27 00:10:39,104728
1320,2026-02-27 00:10:39,104565
1321,2026-02-27 00:10:39,104450
1322,2026-02-27 00:10:39,104438
1323,2026-02-27 00:10:39,104447
1324,2026-02-27 00:10:40,104464
1325,2026-02-27 00:10:40,104472
1326,2026-02-27 00:10:40,104481
1327,2026-02-27 00:10:40,104495
1328,2026-02-27 00:10:40,104486
1329,2026-02-27 00:10:40,104487
1330,2026-02-27 00:10:40,104533
1331,2026-02-27 00:10:40,104568
1332,2026-02-27 00:10:40,104589
1333,2026-02-27 00:10:40,104601
1334,2026-02-27 00:10:40,104614
1335,2026-02-27 00:10:40,104603
1336,2026-02-27 00:10:40,104655
1337,2026-02-27 00:10:40,104709
1338,2026-02-27 00:10:40,104722
1339,2026-02-27 00:10:40,104759
1340,2026-02-27 00:10:40,104780
1341,2026-02-27 00:10:40,104767
1342,2026-02-27 00:10:40,104813
1343,2026-02-27 00:10:40,104814
1344,2026-02-27 00:10:40,104689
1345,2026-02-27 00:10:40,104557
1346,2026-02-27 00:10:40,104481
1347,2026-02-27 00:10:40,104443
1348,2026-02-27 00:10:40,104459
1349,2026-02-27 00:10:40,104462
1350,2026-02-27 00:10:41,104494
1351,2026-02-27 00:10:41,104485
1352,2026-02-27 00:10:41,104498
1353,2026-02-27 00:10:41,104505
1354,2026-02-27 00:10:41,104564
1355,2026-02-27 00:10:41,104612
1356,2026-02-27 00:10:41,104650
1357,2026-02-27 00:10:41,104686
1358,2026-02-27 00:10:41,104691
1359,2026-02-27 00:10:41,104678
1360,2026-02-27 00:10:41,104726
1361,2026-02-27 00:10:41,104750
1362,2026-02-27 00:10:41,104770
1363,2026-02-27 00:10:41,104777
1364,2026-02-27 00:10:41,104801
1365,2026-02-27 00:10:41,104815
1366,2026-02-27 00:10:41,104853
1367,2026-02-27 00:10:41,104877
1368,2026-02-27 00:10:41,104888
1369,2026-02-27 00:10:41,104826
1370,2026-02-27 00:10:41,104648
1371,2026-02-27 00:10:41,104529
1372,2026-02-27 00:10:41,104524
1373,2026-02-27 00:10:41,104532
1374,2026-02-27 00:10:42,104553
1375,2026-02-27 00:10:42,104589
1376,2026-02-27 00:10:42,104585
1377,2026-02-27 00:10:42,104567
1378,2026-02-27 00:10:42,104599
1379,2026-02-27 00:10:42,104612
1380,2026-02-27 00:10:42,104669
1381,2026-02-27 00:10:42,104683
1382,2026-02-27 00:10:42,104698
1383,2026-02-27 00:10:42,104724
1384,2026-02-27 00:10:42,104727
1385,2026-02-27 00:10:42,104752
1386,2026-02-27 00:10:42,104778
1387,2026-02-27 00:10:42,104796
1388,2026-02-27 00:10:42,104815
1389,2026-02-27 00:10:42,104842
1390,2026-02-27 00:10:42,104895
1391,2026-02-27 00:10:42,104910
1392,2026-02-27 00:10:42,104927
1393,2026-02-27 00:10:42,104887
1394,2026-02-27 00:10:42,104700
1395,2026-02-27 00:10:42,104589
1396,2026-02-27 00:10:42,104560
1397,2026-02-27 00:10:42,104570
1398,2026-02-27 00:10:42,104580
1399,2026-02-27 00:10:43,104584
1400,2026-02-27 00:10:43,104576
1401,2026-02-27 00:10:43,104594
1402,2026-02-27 00:10:43,104588
1403,2026-02-27 00:10:43,104604
1404,2026-02-27 00:10:43,104604
1405,2026-02-27 00:10:43,104643
1406,2026-02-27 00:10:43,104684
1407,2026-02-27 00:10:43,104685
1408,2026-02-27 00:10:43,104706
1409,2026-02-27 00:10:43,104739
1410,2026-02-27 00:10:43,104749
1411,2026-02-27 00:10:43,104796
1412,2026-02-27 00:10:43,104801
1413,2026-02-27 00:10:43,104820
1414,2026-02-27 00:10:43,104866
1415,2026-02-27 00:10:43,104880
1416,2026-02-27 00:10:43,104911
1417,2026-02-27 00:10:43,104936
1418,2026-02-27 00:10:43,104939
1419,2026-02-27 00:10:43,104789
1420,2026-02-27 00:10:43,104640
1421,2026-02-27 00:10:43,104576
1422,2026-02-27 00:10:43,104565
1423,2026-02-27 00:10:43,104581
1424,2026-02-27 00:10:44,104590
1425,2026-02-27 00:10:44,104584
1426,2026-02-27 00:10:44,104609
1427,2026-02-27 00:10:44,104611
1428,2026-02-27 00:10:44,104623
1429,2026-02-27 00:10:44,104646
1430,2026-02-27 00:10:44,104668
1431,2026-02-27 00:10:44,104661
1432,2026-02-27 00:10:44,104691
1433,2026-02-27 00:10:44,104701
1434,2026-02-27 00:10:44,104696
1435,2026-02-27 00:10:44,104722
1436,2026-02-27 00:10:44,104749
1437,2026-02-27 00:10:44,104732
1438,2026-02-27 00:10:44,104757
1439,2026-02-27 00:10:44,104785
1440,2026-02-27 00:10:44,104811
1441,2026-02-27 00:10:44,104851
1442,2026-02-27 00:10:44,104823
1443,2026-02-27 00:10:44,104681
1444,2026-02-27 00:10:44,104546
1445,2026-02-27 00:10:44,104464
1446,2026-02-27 00:10:44,104482
1447,2026-02-27 00:10:45,104505
1448,2026-02-27 00:10:45,104519
1449,2026-02-27 00:10:45,104522
1450,2026-02-27 00:10:45,104534
1451,2026-02-27 00:10:45,104523
1452,2026-02-27 00:10:45,104524
1453,2026-02-27 00:10:45,104547
1454,2026-02-27 00:10:45,104584
1455,2026-02-27 00:10:45,104581
1456,2026-02-27 00:10:45,104635
1457,2026-02-27 00:10:45,104659
1458,2026-02-27 00:10:45,104680
1459,2026-02-27 00:10:45,104698
1460,2026-02-27 00:10:45,104716
1461,2026-02-27 00:10:45,104703
1462,2026-02-27 00:10:45,104745
1463,2026-02-27 00:10:45,104782
1464,2026-02-27 00:10:45,104820
1465,2026-02-27 00:10:45,104841
1466,2026-02-27 00:10:45,104763
1467,2026-02-27 00:10:45,104558
1468,2026-02-27 00:10:45,104471
1469,2026-02-27 00:10:45,104427
1470,2026-02-27 00:10:45,104453
1471,2026-02-27 00:10:45,104470
1472,2026-02-27 00:10:45,104480
1473,2026-02-27 00:10:45,104464
1474,2026-02-27 00:10:46,104487
1475,2026-02-27 00:10:46,104493
1476,2026-02-27 00:10:46,104514
1477,2026-02-27 00:10:46,104546
1478,2026-02-27 00:10:46,104575
1479,2026-02-27 00:10:46,104578
1480,2026-02-27 00:10:46,104629
1481,2026-02-27 00:10:46,104657
1482,2026-02-27 00:10:46,104689
1483,2026-02-27 00:10:46,104706
1484,2026-02-27 00:10:46,104732
1485,2026-02-27 00:10:46,104754
1486,2026-02-27 00:10:46,104798
1487,2026-02-27 00:10:46,104837
1488,2026-02-27 00:10:46,104852
1489,2026-02-27 00:10:46,104865
1490,2026-02-27 00:10:46,104802
1491,2026-02-27 00:10:46,104627
1492,2026-02-27 00:10:46,104524
1493,2026-02-27 00:10:46,104464
1494,2026-02-27 00:10:46,104482
1495,2026-02-27 00:10:46,104495
1496,2026-02-27 00:10:46,104488
1497,2026-02-27 00:10:46,104475
1498,2026-02-27 00:10:46,104501
1499,2026-02-27 00:10:46,104497
1500,2026-02-27 00:10:47,104518
1501,2026-02-27 00:10:47,104550
1502,2026-02-27 00:10:47,104581
1503,2026-02-27 00:10:47,104582
1504,2026-02-27 00:10:47,104620
1505,2026-02-27 00:10:47,104615
1506,2026-02-27 00:10:47,104635
1507,2026-02-27 00:10:47,104699
1508,2026-02-27 00:10:47,104735
1509,2026-02-27 00:10:47,104743
1510,2026-02-27 00:10:47,104790
1511,2026-02-27 00:10:47,104815
1512,2026-02-27 00:10:47,104803
1513,2026-02-27 00:10:47,104732
1514,2026-02-27 00:10:47,104622
1515,2026-02-27 00:10:47,104438
1516,2026-02-27 00:10:47,104278
1517,2026-02-27 00:10:47,104228
1518,2026-02-27 00:10:47,104223
1519,2026-02-27 00:10:47,104246
1520,2026-02-27 00:10:47,104254
1521,2026-02-27 00:10:47,104269
1522,2026-02-27 00:10:47,104299
1523,2026-02-27 00:10:47,104296
1524,2026-02-27 00:10:48,104314
1525,2026-02-27 00:10:48,104314
1526,2026-02-27 00:10:48,104364
1527,2026-02-27 00:10:48,104397
1528,2026-02-27 00:10:48,104460
1529,2026-02-27 00:10:48,104486
1530,2026-02-27 00:10:48,104500
1531,2026-02-27 00:10:48,104515
1532,2026-02-27 00:10:48,104573
1533,2026-02-27 00:10:48,104557
1534,2026-02-27 00:10:48,104616
1535,2026-02-27 00:10:48,104656
1536,2026-02-27 00:10:48,104668
1537,2026-02-27 00:10:48,104689
1538,2026-02-27 00:10:48,104710
1539,2026-02-27 00:10:48,104570
1540,2026-02-27 00:10:48,104376
1541,2026-02-27 00:10:48,104304
1542,2026-02-27 00:10:48,104292
1543,2026-02-27 00:10:48,104274
1544,2026-02-27 00:10:48,104299
1545,2026-02-27 00:10:48,104291
1546,2026-02-27 00:10:48,104336
1547,2026-02-27 00:10:48,104338
1548,2026-02-27 00:10:48,104341
1549,2026-02-27 00:10:49,104367
1550,2026-02-27 00:10:49,104388
1551,2026-02-27 00:10:49,104386
1552,2026-02-27 00:10:49,104440
1553,2026-02-27 00:10:49,104468
1554,2026-02-27 00:10:49,104503
1555,2026-02-27 00:10:49,104516
1556,2026-02-27 00:10:49,104535
1557,2026-02-27 00:10:49,104556
1558,2026-02-27 00:10:49,104606
1559,2026-02-27 00:10:49,104633
1560,2026-02-27 00:10:49,104664
1561,2026-02-27 00:10:49,104699
1562,2026-02-27 00:10:49,104710
1563,2026-02-27 00:10:49,104551
1564,2026-02-27 00:10:49,104390
1565,2026-02-27 00:10:49,104316
1566,2026-02-27 00:10:49,104302
1567,2026-02-27 00:10:49,104314
1568,2026-02-27 00:10:49,104308
1569,2026-02-27 00:10:49,104311
1570,2026-02-27 00:10:49,104343
1571,2026-02-27 00:10:49,104348
1572,2026-02-27 00:10:49,104350
1573,2026-02-27 00:10:49,104380
1574,2026-02-27 00:10:49,104416
1575,2026-02-27 00:10:50,104397
1576,2026-02-27 00:10:50,104432
1577,2026-02-27 00:10:50,104474
1578,2026-02-27 00:10:50,104479
1579,2026-02-27 00:10:50,104497
1580,2026-02-27 00:10:50,104531
1581,2026-02-27 00:10:50,104510
1582,2026-02-27 00:10:50,104545
1583,2026-02-27 00:10:50,104578
1584,2026-02-27 00:10:50,104599
1585,2026-02-27 00:10:50,104622
1586,2026-02-27 00:10:50,104668
1587,2026-02-27 00:10:50,104628
1588,2026-02-27 00:10:50,104502
1589,2026-02-27 00:10:50,104385
1590,2026-02-27 00:10:50,104333
1591,2026-02-27 00:10:50,104362
1592,2026-02-27 00:10:50,104417
1593,2026-02-27 00:10:50,104394
1594,2026-02-27 00:10:50,104428
1595,2026-02-27 00:10:50,104437
1596,2026-02-27 00:10:50,104433
1597,2026-02-27 00:10:50,104438
1598,2026-02-27 00:10:50,104462
1599,2026-02-27 00:10:51,104481
1600,2026-02-27 00:10:51,104517
1601,2026-02-27 00:10:51,104545
1602,2026-02-27 00:10:51,104581
1603,2026-02-27 00:10:51,104591
1604,2026-02-27 00:10:51,104593
1605,2026-02-27 00:10:51,104606
1606,2026-02-27 00:10:51,104659
1607,2026-02-27 00:10:51,104675
1608,2026-02-27 00:10:51,104708
1609,2026-02-27 00:10:51,104734
1610,2026-02-27 00:10:51,104742
1611,2026-02-27 00:10:51,104692
1612,2026-02-27 00:10:51,104523
1613,2026-02-27 00:10:51,104341
1614,2026-02-27 00:10:51,104289
1615,2026-02-27 00:10:51,104316
1616,2026-02-27 00:10:51,104334
1617,2026-02-27 00:10:51,104356
1618,2026-02-27 00:10:51,104395
1619,2026-02-27 00:10:51,104395
1620,2026-02-27 00:10:51,104404
1621,2026-02-27 00:10:51,104419
1622,2026-02-27 00:10:51,104479
1623,2026-02-27 00:10:51,104492
1624,2026-02-27 00:10:52,104524
1625,2026-02-27 00:10:52,104546
1626,2026-02-27 00:10:52,104583
1627,2026-02-27 00:10:52,104584
1628,2026-02-27 00:10:52,104606
1629,2026-02-27 00:10:52,104618
1630,2026-02-27 00:10:52,104655
1631,2026-02-27 00:10:52,104686
1632,2026-02-27 00:10:52,104740
1633,2026-02-27 00:10:52,104765
1634,2026-02-27 00:10:52,104766
1635,2026-02-27 00:10:52,104750
1636,2026-02-27 00:10:52,104587
1637,2026-02-27 00:10:52,104428
1638,2026-02-27 00:10:52,104360
1639,2026-02-27 00:10:52,104377
1640,2026-02-27 00:10:52,104359
1641,2026-02-27 00:10:52,104363
1642,2026-02-27 00:10:52,104378
1643,2026-02-27 00:10:52,104377
1644,2026-02-27 00:10:52,104345
1645,2026-02-27 00:10:52,104345
1646,2026-02-27 00:10:52,104364
1647,2026-02-27 00:10:52,104365
1648,2026-02-27 00:10:52,104399
1649,2026-02-27 00:10:52,104438
1650,2026-02-27 00:10:53,104447
1651,2026-02-27 00:10:53,104470
1652,2026-02-27 00:10:53,104517
1653,2026-02-27 00:10:53,104507
1654,2026-02-27 00:10:53,104536
1655,2026-02-27 00:10:53,104593
1656,2026-02-27 00:10:53,104621
1657,2026-02-27 00:10:53,104636
1658,2026-02-27 00:10:53,104680
1659,2026-02-27 00:10:53,104683
1660,2026-02-27 00:10:53,104629
1661,2026-02-27 00:10:53,104472
1662,2026-02-27 00:10:53,104324
1663,2026-02-27 00:10:53,104288
1664,2026-02-27 00:10:53,104310
1665,2026-02-27 00:10:53,104293
1666,2026-02-27 00:10:53,104321
1667,2026-02-27 00:10:53,104309
1668,2026-02-27 00:10:53,104269
1669,2026-02-27 00:10:53,104256
1670,2026-02-27 00:10:53,104292
1671,2026-02-27 00:10:53,104302
1672,2026-02-27 00:10:53,104376
1673,2026-02-27 00:10:53,104400
1674,2026-02-27 00:10:53,104435
1675,2026-02-27 00:10:54,104476
1676,2026-02-27 00:10:54,104492
1677,2026-02-27 00:10:54,104489
1678,2026-02-27 00:10:54,104535
1679,2026-02-27 00:10:54,104552
1680,2026-02-27 00:10:54,104565
1681,2026-02-27 00:10:54,104604
1682,2026-02-27 00:10:54,104663
1683,2026-02-27 00:10:54,104624
1684,2026-02-27 00:10:54,104530
1685,2026-02-27 00:10:54,104330
1686,2026-02-27 00:10:54,104239
1687,2026-02-27 00:10:54,104231
1688,2026-02-27 00:10:54,104227
1689,2026-02-27 00:10:54,104216
1690,2026-02-27 00:10:54,104247
1691,2026-02-27 00:10:54,104241
1692,2026-02-27 00:10:54,104254
1693,2026-02-27 00:10:54,104274
1694,2026-02-27 00:10:54,104300
1695,2026-02-27 00:10:54,104308
1696,2026-02-27 00:10:54,104364
1697,2026-02-27 00:10:54,104411
1698,2026-02-27 00:10:54,104441
1699,2026-02-27 00:10:55,104454
1700,2026-02-27 00:10:55,104473
1701,2026-02-27 00:10:55,104473
1702,2026-02-27 00:10:55,104542
1703,2026-02-27 00:10:55,104569
1704,2026-02-27 00:10:55,104589
1705,2026-02-27 00:10:55,104604
1706,2026-02-27 00:10:55,104633
1707,2026-02-27 00:10:55,104617
1708,2026-02-27 00:10:55,104538
1709,2026-02-27 00:10:55,104327
1710,2026-02-27 00:10:55,104206
1711,2026-02-27 00:10:55,104240
1712,2026-02-27 00:10:55,104270
1713,2026-02-27 00:10:55,104242
1714,2026-02-27 00:10:55,104297
1715,2026-02-27 00:10:55,104299
1716,2026-02-27 00:10:55,104286
1717,2026-02-27 00:10:55,104290
1718,2026-02-27 00:10:55,104312
1719,2026-02-27 00:10:55,104304
1720,2026-02-27 00:10:55,104369
1721,2026-02-27 00:10:55,104382
1722,2026-02-27 00:10:55,104397
1723,2026-02-27 00:10:55,104429
1724,2026-02-27 00:10:55,104418
1725,2026-02-27 00:10:56,104434
1726,2026-02-27 00:10:56,104491
1727,2026-02-27 00:10:56,104502
1728,2026-02-27 00:10:56,104525
1729,2026-02-27 00:10:56,104571
1730,2026-02-27 00:10:56,104540
1731,2026-02-27 00:10:56,104395
1732,2026-02-27 00:10:56,104225
1733,2026-02-27 00:10:56,104128
1734,2026-02-27 00:10:56,104163
1735,2026-02-27 00:10:56,104192
1736,2026-02-27 00:10:56,104195
1737,2026-02-27 00:10:56,104196
1738,2026-02-27 00:10:56,104239
1739,2026-02-27 00:10:56,104238
1740,2026-02-27 00:10:56,104240
1741,2026-02-27 00:10:56,104269
1742,2026-02-27 00:10:56,104316
1743,2026-02-27 00:10:56,104336
1744,2026-02-27 00:10:56,104398
1745,2026-02-27 00:10:56,104432
1746,2026-02-27 00:10:56,104455
1747,2026-02-27 00:10:56,104477
1748,2026-02-27 00:10:56,104491
1749,2026-02-27 00:10:56,104516
1750,2026-02-27 00:10:57,104536
1751,2026-02-27 00:10:57,104579
1752,2026-02-27 00:10:57,104621
1753,2026-02-27 00:10:57,104622
1754,2026-02-27 00:10:57,104457
1755,2026-02-27 00:10:57,104282
1756,2026-02-27 00:10:57,104202
1757,2026-02-27 00:10:57,104203
1758,2026-02-27 00:10:57,104224
1759,2026-02-27 00:10:57,104249
1760,2026-02-27 00:10:57,104240
1761,2026-02-27 00:10:57,104255
1762,2026-02-27 00:10:57,104248
1763,2026-02-27 00:10:57,104260
1764,2026-02-27 00:10:57,104289
1765,2026-02-27 00:10:57,104289
1766,2026-02-27 00:10:57,104330
1767,2026-02-27 00:10:57,104336
1768,2026-02-27 00:10:57,104356
1769,2026-02-27 00:10:57,104380
1770,2026-02-27 00:10:57,104385
1771,2026-02-27 00:10:57,104396
1772,2026-02-27 00:10:57,104440
1773,2026-02-27 00:10:57,104413
1774,2026-02-27 00:10:58,104441
1775,2026-02-27 00:10:58,104471
1776,2026-02-27 00:10:58,104488
1777,2026-02-27 00:10:58,104417
1778,2026-02-27 00:10:58,104220
1779,2026-02-27 00:10:58,104067
1780,2026-02-27 00:10:58,104063
1781,2026-02-27 00:10:58,104066
1782,2026-02-27 00:10:58,104079
1783,2026-02-27 00:10:58,104111
1784,2026-02-27 00:10:58,104119
1785,2026-02-27 00:10:58,104082
1786,2026-02-27 00:10:58,104108
1787,2026-02-27 00:10:58,104124
1788,2026-02-27 00:10:58,104158
1789,2026-02-27 00:10:58,104199
1790,2026-02-27 00:10:58,104230
1791,2026-02-27 00:10:58,104237
1792,2026-02-27 00:10:58,104278
1793,2026-02-27 00:10:58,104292
1794,2026-02-27 00:10:58,104332
1795,2026-02-27 00:10:58,104361
1796,2026-02-27 00:10:58,104388
1797,2026-02-27 00:10:58,104383
1798,2026-02-27 00:10:58,104429
1799,2026-02-27 00:10:58,104333
1800,2026-02-27 00:10:59,104130
1801,2026-02-27 00:10:59,104030
1802,2026-02-27 00:10:59,104073
1803,2026-02-27 00:10:59,104084
1804,2026-02-27 00:10:59,104115
1805,2026-02-27 00:10:59,104098
1806,2026-02-27 00:10:59,104082
1807,2026-02-27 00:10:59,104036
1808,2026-02-27 00:10:59,104000
1809,2026-02-27 00:10:59,103987
1810,2026-02-27 00:10:59,104032
1811,2026-02-27 00:10:59,104066
1812,2026-02-27 00:10:59,104100
1813,2026-02-27 00:10:59,104129
1814,2026-02-27 00:10:59,104142
1815,2026-02-27 00:10:59,104109
1816,2026-02-27 00:10:59,104147
1817,2026-02-27 00:10:59,104157
1818,2026-02-27 00:10:59,104179
1819,2026-02-27 00:10:59,104194
1820,2026-02-27 00:10:59,104203
1821,2026-02-27 00:10:59,104118
1822,2026-02-27 00:10:59,103959
1823,2026-02-27 00:10:59,103804
1824,2026-02-27 00:10:59,103741
1825,2026-02-27 00:11:00,103747
1826,2026-02-27 00:11:00,103728
1827,2026-02-27 00:11:00,103713
1828,2026-02-27 00:11:00,103745
1829,2026-02-27 00:11:00,103751
1830,2026-02-27 00:11:00,103754
1831,2026-02-27 00:11:00,103761
1832,2026-02-27 00:11:00,103798
1833,2026-02-27 00:11:00,103775
1834,2026-02-27 00:11:00,103816
1835,2026-02-27 00:11:00,103853
1836,2026-02-27 00:11:00,103884
1837,2026-02-27 00:11:00,103885
1838,2026-02-27 00:11:00,103911
1839,2026-02-27 00:11:00,103907
1840,2026-02-27 00:11:00,103966
1841,2026-02-27 00:11:00,104005
1842,2026-02-27 00:11:00,104017
1843,2026-02-27 00:11:00,104060
1844,2026-02-27 00:11:00,104029
1845,2026-02-27 00:11:00,103868
1846,2026-02-27 00:11:00,103747
1847,2026-02-27 00:11:00,103715
1848,2026-02-27 00:11:00,103714
1849,2026-02-27 00:11:01,103716
1850,2026-02-27 00:11:01,103734
1851,2026-02-27 00:11:01,103755
1852,2026-02-27 00:11:01,103790
1853,2026-02-27 00:11:01,103786
1854,2026-02-27 00:11:01,103811
1855,2026-02-27 00:11:01,103816
1856,2026-02-27 00:11:01,103838
1857,2026-02-27 00:11:01,103862
1858,2026-02-27 00:11:01,103858
1859,2026-02-27 00:11:01,103832
1860,2026-02-27 00:11:01,103860
1861,2026-02-27 00:11:01,103884
1862,2026-02-27 00:11:01,103948
1863,2026-02-27 00:11:01,103960
1864,2026-02-27 00:11:01,104012
1865,2026-02-27 00:11:01,104082
1866,2026-02-27 00:11:01,104139
1867,2026-02-27 00:11:01,104167
1868,2026-02-27 00:11:01,104076
1869,2026-02-27 00:11:01,103942
1870,2026-02-27 00:11:01,103877
1871,2026-02-27 00:11:01,103870
1872,2026-02-27 00:11:01,103913
1873,2026-02-27 00:11:01,103959
1874,2026-02-27 00:11:01,103944
1875,2026-02-27 00:11:02,103970
1876,2026-02-27 00:11:02,103982
1877,2026-02-27 00:11:02,103969
1878,2026-02-27 00:11:02,103981
1879,2026-02-27 00:11:02,104029
1880,2026-02-27 00:11:02,104062
1881,2026-02-27 00:11:02,104115
1882,2026-02-27 00:11:02,104161
1883,2026-02-27 00:11:02,104192
1884,2026-02-27 00:11:02,104235
1885,2026-02-27 00:11:02,104235
1886,2026-02-27 00:11:02,104258
1887,2026-02-27 00:11:02,104268
1888,2026-02-27 00:11:02,104294
1889,2026-02-27 00:11:02,104335
1890,2026-02-27 00:11:02,104365
1891,2026-02-27 00:11:02,104380
1892,2026-02-27 00:11:02,104415
1893,2026-02-27 00:11:02,104400
1894,2026-02-27 00:11:02,104364
1895,2026-02-27 00:11:02,104181
1896,2026-02-27 00:11:02,104048
1897,2026-02-27 00:11:02,104015
1898,2026-02-27 00:11:02,104031
1899,2026-02-27 00:11:03,104017
1900,2026-02-27 00:11:03,104037
1901,2026-02-27 00:11:03,104044
1902,2026-02-27 00:11:03,104064
1903,2026-02-27 00:11:03,104067
1904,2026-02-27 00:11:03,104071
1905,2026-02-27 00:11:03,104062
1906,2026-02-27 00:11:03,104131
1907,2026-02-27 00:11:03,104159
1908,2026-02-27 00:11:03,104169
1909,2026-02-27 00:11:03,104190
1910,2026-02-27 00:11:03,104213
1911,2026-02-27 00:11:03,104207
1912,2026-02-27 00:11:03,104277
1913,2026-02-27 00:11:03,104305
1914,2026-02-27 00:11:03,104327
1915,2026-02-27 00:11:03,104351
1916,2026-02-27 00:11:03,104344
1917,2026-02-27 00:11:03,104322
1918,2026-02-27 00:11:03,104377
1919,2026-02-27 00:11:03,104386
1920,2026-02-27 00:11:03,104346
1921,2026-02-27 00:11:03,104226
1922,2026-02-27 00:11:03,104096
1923,2026-02-27 00:11:03,103989
1924,2026-02-27 00:11:04,104034
1925,2026-02-27 00:11:04,104041
1926,2026-02-27 00:11:04,104040
1927,2026-02-27 00:11:04,104066
1928,2026-02-27 00:11:04,104072
1929,2026-02-27 00:11:04,104043
1930,2026-02-27 00:11:04,104068
1931,2026-02-27 00:11:04,104090
1932,2026-02-27 00:11:04,104110
1933,2026-02-27 00:11:04,104151
1934,2026-02-27 00:11:04,104193
1935,2026-02-27 00:11:04,104188
1936,2026-02-27 00:11:04,104264
1937,2026-02-27 00:11:04,104250
1938,2026-02-27 00:11:04,104275
1939,2026-02-27 00:11:04,104319
1940,2026-02-27 00:11:04,104345
1941,2026-02-27 00:11:04,104333
1942,2026-02-27 00:11:04,104378
1943,2026-02-27 00:11:04,104423
1944,2026-02-27 00:11:04,104441
1945,2026-02-27 00:11:04,104372
1946,2026-02-27 00:11:04,104219
1947,2026-02-27 00:11:04,104060
1948,2026-02-27 00:11:04,104030
1949,2026-02-27 00:11:04,104048
1950,2026-02-27 00:11:05,104048
1951,2026-02-27 00:11:05,104062
1952,2026-02-27 00:11:05,104100
1953,2026-02-27 00:11:05,104073
1954,2026-02-27 00:11:05,104103
1955,2026-02-27 00:11:05,104130
1956,2026-02-27 00:11:05,104162
1957,2026-02-27 00:11:05,104209
1958,2026-02-27 00:11:05,104237
1959,2026-02-27 00:11:05,104238
1960,2026-02-27 00:11:05,104268
1961,2026-02-27 00:11:05,104307
1962,2026-02-27 00:11:05,104329
1963,2026-02-27 00:11:05,104367
1964,2026-02-27 00:11:05,104387
1965,2026-02-27 00:11:05,104408
1966,2026-02-27 00:11:05,104443
1967,2026-02-27 00:11:05,104460
1968,2026-02-27 00:11:05,104481
1969,2026-02-27 00:11:05,104414
1970,2026-02-27 00:11:05,104197
1971,2026-02-27 00:11:05,104032
1972,2026-02-27 00:11:05,104005
1973,2026-02-27 00:11:05,104010
1974,2026-02-27 00:11:06,104020
1975,2026-02-27 00:11:06,104039
1976,2026-02-27 00:11:06,104045
1977,2026-02-27 00:11:06,104036
1978,2026-02-27 00:11:06,104048
1979,2026-02-27 00:11:06,104044
1980,2026-02-27 00:11:06,104051
1981,2026-02-27 00:11:06,104072
1982,2026-02-27 00:11:06,104103
1983,2026-02-27 00:11:06,104096
1984,2026-02-27 00:11:06,104125
1985,2026-02-27 00:11:06,104109
1986,2026-02-27 00:11:06,104113
1987,2026-02-27 00:11:06,104160
1988,2026-02-27 00:11:06,104142
1989,2026-02-27 00:11:06,104153
1990,2026-02-27 00:11:06,104177
1991,2026-02-27 00:11:06,104160
1992,2026-02-27 00:11:06,104123
1993,2026-02-27 00:11:06,104001
1994,2026-02-27 00:11:06,103833
1995,2026-02-27 00:11:06,103734
1996,2026-02-27 00:11:06,103740
1997,2026-02-27 00:11:06,103777
1998,2026-02-27 00:11:06,103818
1999,2026-02-27 00:11:07,103820
2000,2026-02-27 00:11:07,103776
2001,2026-02-27 00:11:07,103762
2002,2026-02-27 00:11:07,103753
2003,2026-02-27 00:11:07,103771
2004,2026-02-27 00:11:07,103825
2005,2026-02-27 00:11:07,103825
2006,2026-02-27 00:11:07,103842
2007,2026-02-27 00:11:07,103821
2008,2026-02-27 00:11:07,103858
2009,2026-02-27 00:11:07,103866
2010,2026-02-27 00:11:07,103873
2011,2026-02-27 00:11:07,103887
2012,2026-02-27 00:11:07,103929
2013,2026-02-27 00:11:07,103931
2014,2026-02-27 00:11:07,103962
2015,2026-02-27 00:11:07,103908
2016,2026-02-27 00:11:07,103748
2017,2026-02-27 00:11:07,103635
2018,2026-02-27 00:11:07,103578
2019,2026-02-27 00:11:07,103574
2020,2026-02-27 00:11:07,103603
2021,2026-02-27 00:11:07,103630
2022,2026-02-27 00:11:07,103659
2023,2026-02-27 00:11:07,103657
2024,2026-02-27 00:11:07,103666
2025,2026-02-27 00:11:08,103659
2026,2026-02-27 00:11:08,103719
2027,2026-02-27 00:11:08,103762
2028,2026-02-27 00:11:08,103805
2029,2026-02-27 00:11:08,103822
2030,2026-02-27 00:11:08,103829
2031,2026-02-27 00:11:08,103840
2032,2026-02-27 00:11:08,103878
2033,2026-02-27 00:11:08,103892
2034,2026-02-27 00:11:08,103919
2035,2026-02-27 00:11:08,103931
2036,2026-02-27 00:11:08,103906
2037,2026-02-27 00:11:08,103795
2038,2026-02-27 00:11:08,103650
2039,2026-02-27 00:11:08,103539
2040,2026-02-27 00:11:08,103537
2041,2026-02-27 00:11:08,103571
2042,2026-02-27 00:11:08,103571
2043,2026-02-27 00:11:08,103586
2044,2026-02-27 00:11:08,103652
2045,2026-02-27 00:11:08,103646
2046,2026-02-27 00:11:08,103635
2047,2026-02-27 00:11:08,103702
2048,2026-02-27 00:11:08,103748
2049,2026-02-27 00:11:08,103775
2050,2026-02-27 00:11:09,103852
2051,2026-02-27 00:11:09,103874
2052,2026-02-27 00:11:09,103910
2053,2026-02-27 00:11:09,103971
2054,2026-02-27 00:11:09,103985
2055,2026-02-27 00:11:09,104003
2056,2026-02-27 00:11:09,104061
2057,2026-02-27 00:11:09,104080
2058,2026-02-27 00:11:09,104075
2059,2026-02-27 00:11:09,103921
2060,2026-02-27 00:11:09,103780
