Packet_Number,Timestamp,Data
1,2026-02-27 00:11:16,104101
2,2026-02-27 00:11:16,104101
3,2026-02-27 00:11:16,104156
4,2026-02-27 00:11:16,104207
5,2026-02-27 00:11:16,104252
6,2026-02-27 00:11:16,104261
7,2026-02-27 00:11:16,104300
8,2026-02-27 00:11:16,104341
9,2026-02-27 00:11:17,104426
10,2026-02-27 00:11:17,104481
11,2026-02-27 00:11:17,104482
12,2026-02-27 00:11:17,104339
13,2026-02-27 00:11:17,104234
14,2026-02-27 00:11:17,104159
15,2026-02-27 00:11:17,104143
16,2026-02-27 00:11:17,104151
17,2026-02-27 00:11:17,104196
18,2026-02-27 00:11:17,104226
19,2026-02-27 00:11:17,104221
20,2026-02-27 00:11:17,104215
21,2026-02-27 00:11:17,104238
22,2026-02-27 00:11:17,104249
23,2026-02-27 00:11:17,104246
24,2026-02-27 00:11:17,104231
25,2026-02-27 00:11:17,104290
26,2026-02-27 00:11:17,104315
27,2026-02-27 00:11:17,104333
28,2026-02-27 00:11:17,104364
29,2026-02-27 00:11:17,104389
30,2026-02-27 00:11:17,104403
31,2026-02-27 00:11:17,104455
32,2026-02-27 00:11:17,104392
33,2026-02-27 00:11:17,104266
34,2026-02-27 00:11:18,104176
35,2026-02-27 00:11:18,104164
36,2026-02-27 00:11:18,104167
37,2026-02-27 00:11:18,104210
38,2026-02-27 00:11:18,104237
39,2026-02-27 00:11:18,104254
40,2026-02-27 00:11:18,104261
41,2026-02-27 00:11:18,104288
42,2026-02-27 00:11:18,104304
43,2026-02-27 00:11:18,104354
44,2026-02-27 00:11:18,104395
45,2026-02-27 00:11:18,104425
46,2026-02-27 00:11:18,104462
47,2026-02-27 00:11:18,104481
48,2026-02-27 00:11:18,104480
49,2026-02-27 00:11:18,104530
50,2026-02-27 00:11:18,104573
51,2026-02-27 00:11:18,104598
52,2026-02-27 00:11:18,104621
53,2026-02-27 00:11:18,104653
54,2026-02-27 00:11:18,104597
55,2026-02-27 00:11:18,104491
56,2026-02-27 00:11:18,104385
57,2026-02-27 00:11:18,104352
58,2026-02-27 00:11:19,104374
59,2026-02-27 00:11:19,104380
60,2026-02-27 00:11:19,104361
61,2026-02-27 00:11:19,104409
62,2026-02-27 00:11:19,104425
63,2026-02-27 00:11:19,104427
64,2026-02-27 00:11:19,104450
65,2026-02-27 00:11:19,104466
66,2026-02-27 00:11:19,104479
67,2026-02-27 00:11:19,104516
68,2026-02-27 00:11:19,104546
69,2026-02-27 00:11:19,104582
70,2026-02-27 00:11:19,104608
71,2026-02-27 00:11:19,104606
72,2026-02-27 00:11:19,104596
73,2026-02-27 00:11:19,104637
74,2026-02-27 00:11:19,104624
75,2026-02-27 00:11:19,104630
76,2026-02-27 00:11:19,104664
77,2026-02-27 00:11:19,104658
78,2026-02-27 00:11:19,104567
79,2026-02-27 00:11:19,104470
80,2026-02-27 00:11:19,104378
81,2026-02-27 00:11:19,104365
82,2026-02-27 00:11:19,104389
83,2026-02-27 00:11:19,104390
84,2026-02-27 00:11:20,104400
85,2026-02-27 00:11:20,104427
86,2026-02-27 00:11:20,104401
87,2026-02-27 00:11:20,104406
88,2026-02-27 00:11:20,104432
89,2026-02-27 00:11:20,104423
90,2026-02-27 00:11:20,104438
91,2026-02-27 00:11:20,104503
92,2026-02-27 00:11:20,104520
93,2026-02-27 00:11:20,104537
94,2026-02-27 00:11:20,104555
95,2026-02-27 00:11:20,104550
96,2026-02-27 00:11:20,104557
97,2026-02-27 00:11:20,104636
98,2026-02-27 00:11:20,104687
99,2026-02-27 00:11:20,104720
100,2026-02-27 00:11:20,104736
101,2026-02-27 00:11:20,104653
102,2026-02-27 00:11:20,104516
103,2026-02-27 00:11:20,104415
104,2026-02-27 00:11:20,104386
105,2026-02-27 00:11:20,104377
106,2026-02-27 00:11:20,104374
107,2026-02-27 00:11:20,104373
108,2026-02-27 00:11:21,104369
109,2026-02-27 00:11:21,104385
110,2026-02-27 00:11:21,104371
111,2026-02-27 00:11:21,104369
112,2026-02-27 00:11:21,104402
113,2026-02-27 00:11:21,104422
114,2026-02-27 00:11:21,104467
115,2026-02-27 00:11:21,104502
116,2026-02-27 00:11:21,104518
117,2026-02-27 00:11:21,104538
118,2026-02-27 00:11:21,104553
119,2026-02-27 00:11:21,104559
120,2026-02-27 00:11:21,104589
121,2026-02-27 00:11:21,104589
122,2026-02-27 00:11:21,104608
123,2026-02-27 00:11:21,104623
124,2026-02-27 00:11:21,104635
125,2026-02-27 00:11:21,104592
126,2026-02-27 00:11:21,104416
127,2026-02-27 00:11:21,104286
128,2026-02-27 00:11:21,104214
129,2026-02-27 00:11:21,104182
130,2026-02-27 00:11:21,104191
131,2026-02-27 00:11:21,104214
132,2026-02-27 00:11:21,104208
133,2026-02-27 00:11:22,104203
134,2026-02-27 00:11:22,104179
135,2026-02-27 00:11:22,104190
136,2026-02-27 00:11:22,104199
137,2026-02-27 00:11:22,104208
138,2026-02-27 00:11:22,104192
139,2026-02-27 00:11:22,104231
140,2026-02-27 00:11:22,104221
141,2026-02-27 00:11:22,104230
142,2026-02-27 00:11:22,104241
143,2026-02-27 00:11:22,104247
144,2026-02-27 00:11:22,104230
145,2026-02-27 00:11:22,104271
146,2026-02-27 00:11:22,104299
147,2026-02-27 00:11:22,104315
148,2026-02-27 00:11:22,104315
149,2026-02-27 00:11:22,104201
150,2026-02-27 00:11:22,104007
151,2026-02-27 00:11:22,103937
152,2026-02-27 00:11:22,103925
153,2026-02-27 00:11:22,103934
154,2026-02-27 00:11:22,103956
155,2026-02-27 00:11:22,103955
156,2026-02-27 00:11:22,103934
157,2026-02-27 00:11:22,103943
158,2026-02-27 00:11:22,103949
159,2026-02-27 00:11:23,103967
160,2026-02-27 00:11:23,103985
161,2026-02-27 00:11:23,104026
162,2026-02-27 00:11:23,104011
163,2026-02-27 00:11:23,104055
164,2026-02-27 00:11:23,104093
165,2026-02-27 00:11:23,104128
166,2026-02-27 00:11:23,104140
167,2026-02-27 00:11:23,104175
168,2026-02-27 00:11:23,104171
169,2026-02-27 00:11:23,104214
170,2026-02-27 00:11:23,104247
171,2026-02-27 00:11:23,104165
172,2026-02-27 00:11:23,103962
173,2026-02-27 00:11:23,103851
174,2026-02-27 00:11:23,103804
175,2026-02-27 00:11:23,103818
176,2026-02-27 00:11:23,103852
177,2026-02-27 00:11:23,103885
178,2026-02-27 00:11:23,103885
179,2026-02-27 00:11:23,103878
180,2026-02-27 00:11:23,103854
181,2026-02-27 00:11:23,103894
182,2026-02-27 00:11:23,103932
183,2026-02-27 00:11:24,103933
184,2026-02-27 00:11:24,103949
185,2026-02-27 00:11:24,103977
186,2026-02-27 00:11:24,103978
187,2026-02-27 00:11:24,104023
188,2026-02-27 00:11:24,104035
189,2026-02-27 00:11:24,104047
190,2026-02-27 00:11:24,104074
191,2026-02-27 00:11:24,104116
192,2026-02-27 00:11:24,104104
193,2026-02-27 00:11:24,104111
194,2026-02-27 00:11:24,103986
195,2026-02-27 00:11:24,103747
196,2026-02-27 00:11:24,103542
197,2026-02-27 00:11:24,103493
198,2026-02-27 00:11:24,103507
199,2026-02-27 00:11:24,103541
200,2026-02-27 00:11:24,103573
201,2026-02-27 00:11:24,103623
202,2026-02-27 00:11:24,103680
203,2026-02-27 00:11:24,103720
204,2026-02-27 00:11:24,103769
205,2026-02-27 00:11:24,103857
206,2026-02-27 00:11:24,103885
207,2026-02-27 00:11:24,103920
208,2026-02-27 00:11:25,103972
209,2026-02-27 00:11:25,103985
210,2026-02-27 00:11:25,103987
211,2026-02-27 00:11:25,104021
212,2026-02-27 00:11:25,104047
213,2026-02-27 00:11:25,104083
214,2026-02-27 00:11:25,104134
215,2026-02-27 00:11:25,104152
216,2026-02-27 00:11:25,104178
217,2026-02-27 00:11:25,104086
218,2026-02-27 00:11:25,103903
219,2026-02-27 00:11:25,103808
220,2026-02-27 00:11:25,103818
221,2026-02-27 00:11:25,103833
222,2026-02-27 00:11:25,103864
223,2026-02-27 00:11:25,103888
224,2026-02-27 00:11:25,103880
225,2026-02-27 00:11:25,103868
226,2026-02-27 00:11:25,103901
227,2026-02-27 00:11:25,103911
228,2026-02-27 00:11:25,103925
229,2026-02-27 00:11:25,103965
230,2026-02-27 00:11:25,104005
231,2026-02-27 00:11:25,104010
232,2026-02-27 00:11:25,104045
233,2026-02-27 00:11:25,104053
234,2026-02-27 00:11:26,104082
235,2026-02-27 00:11:26,104119
236,2026-02-27 00:11:26,104161
237,2026-02-27 00:11:26,104183
238,2026-02-27 00:11:26,104183
239,2026-02-27 00:11:26,104185
240,2026-02-27 00:11:26,104057
241,2026-02-27 00:11:26,103863
242,2026-02-27 00:11:26,103763
243,2026-02-27 00:11:26,103747
244,2026-02-27 00:11:26,103758
245,2026-02-27 00:11:26,103773
246,2026-02-27 00:11:26,103807
247,2026-02-27 00:11:26,103799
248,2026-02-27 00:11:26,103786
249,2026-02-27 00:11:26,103785
250,2026-02-27 00:11:26,103813
251,2026-02-27 00:11:26,103826
252,2026-02-27 00:11:26,103819
253,2026-02-27 00:11:26,103886
254,2026-02-27 00:11:26,103908
255,2026-02-27 00:11:26,103898
256,2026-02-27 00:11:26,103892
257,2026-02-27 00:11:26,103949
258,2026-02-27 00:11:27,103931
259,2026-02-27 00:11:27,103964
260,2026-02-27 00:11:27,104011
261,2026-02-27 00:11:27,104027
262,2026-02-27 00:11:27,104043
263,2026-02-27 00:11:27,103923
264,2026-02-27 00:11:27,103692
265,2026-02-27 00:11:27,103600
266,2026-02-27 00:11:27,103588
267,2026-02-27 00:11:27,103578
268,2026-02-27 00:11:27,103566
269,2026-02-27 00:11:27,103594
270,2026-02-27 00:11:27,103574
271,2026-02-27 00:11:27,103589
272,2026-02-27 00:11:27,103583
273,2026-02-27 00:11:27,103588
274,2026-02-27 00:11:27,103622
275,2026-02-27 00:11:27,103669
276,2026-02-27 00:11:27,103662
277,2026-02-27 00:11:27,103715
278,2026-02-27 00:11:27,103730
279,2026-02-27 00:11:27,103735
280,2026-02-27 00:11:27,103766
281,2026-02-27 00:11:27,103783
282,2026-02-27 00:11:27,103780
283,2026-02-27 00:11:28,103805
284,2026-02-27 00:11:28,103819
285,2026-02-27 00:11:28,103830
286,2026-02-27 00:11:28,103814
287,2026-02-27 00:11:28,103724
288,2026-02-27 00:11:28,103526
289,2026-02-27 00:11:28,103453
290,2026-02-27 00:11:28,103445
291,2026-02-27 00:11:28,103459
292,2026-02-27 00:11:28,103483
293,2026-02-27 00:11:28,103519
294,2026-02-27 00:11:28,103502
295,2026-02-27 00:11:28,103540
296,2026-02-27 00:11:28,103564
297,2026-02-27 00:11:28,103610
298,2026-02-27 00:11:28,103617
299,2026-02-27 00:11:28,103670
300,2026-02-27 00:11:28,103697
301,2026-02-27 00:11:28,103740
302,2026-02-27 00:11:28,103772
303,2026-02-27 00:11:28,103803
304,2026-02-27 00:11:28,103833
305,2026-02-27 00:11:28,103850
306,2026-02-27 00:11:28,103848
307,2026-02-27 00:11:28,103922
308,2026-02-27 00:11:28,103912
309,2026-02-27 00:11:29,103928
310,2026-02-27 00:11:29,103969
311,2026-02-27 00:11:29,104006
312,2026-02-27 00:11:29,103984
313,2026-02-27 00:11:29,103946
314,2026-02-27 00:11:29,103797
315,2026-02-27 00:11:29,103618
316,2026-02-27 00:11:29,103529
317,2026-02-27 00:11:29,103548
318,2026-02-27 00:11:29,103536
319,2026-02-27 00:11:29,103544
320,2026-02-27 00:11:29,103606
321,2026-02-27 00:11:29,103630
322,2026-02-27 00:11:29,103651
323,2026-02-27 00:11:29,103674
324,2026-02-27 00:11:29,103696
325,2026-02-27 00:11:29,103750
326,2026-02-27 00:11:29,103799
327,2026-02-27 00:11:29,103833
328,2026-02-27 00:11:29,103820
329,2026-02-27 00:11:29,103812
330,2026-02-27 00:11:29,103810
331,2026-02-27 00:11:29,103852
332,2026-02-27 00:11:29,103852
333,2026-02-27 00:11:29,103829
334,2026-02-27 00:11:30,103852
335,2026-02-27 00:11:30,103927
336,2026-02-27 00:11:30,103889
337,2026-02-27 00:11:30,103929
338,2026-02-27 00:11:30,103973
339,2026-02-27 00:11:30,103940
340,2026-02-27 00:11:30,103832
341,2026-02-27 00:11:30,103677
342,2026-02-27 00:11:30,103511
343,2026-02-27 00:11:30,103399
344,2026-02-27 00:11:30,103418
345,2026-02-27 00:11:30,103473
346,2026-02-27 00:11:30,103497
347,2026-02-27 00:11:30,103492
348,2026-02-27 00:11:30,103535
349,2026-02-27 00:11:30,103612
350,2026-02-27 00:11:30,103657
351,2026-02-27 00:11:30,103708
352,2026-02-27 00:11:30,103792
353,2026-02-27 00:11:30,103833
354,2026-02-27 00:11:30,103874
355,2026-02-27 00:11:30,103868
356,2026-02-27 00:11:30,103866
357,2026-02-27 00:11:30,103903
358,2026-02-27 00:11:31,103903
359,2026-02-27 00:11:31,103928
360,2026-02-27 00:11:31,103898
361,2026-02-27 00:11:31,103909
362,2026-02-27 00:11:31,103969
363,2026-02-27 00:11:31,104012
364,2026-02-27 00:11:31,104038
365,2026-02-27 00:11:31,104071
366,2026-02-27 00:11:31,104067
367,2026-02-27 00:11:31,104074
368,2026-02-27 00:11:31,103962
369,2026-02-27 00:11:31,103779
370,2026-02-27 00:11:31,103657
371,2026-02-27 00:11:31,103665
372,2026-02-27 00:11:31,103678
373,2026-02-27 00:11:31,103664
374,2026-02-27 00:11:31,103698
375,2026-02-27 00:11:31,103711
376,2026-02-27 00:11:31,103682
377,2026-02-27 00:11:31,103678
378,2026-02-27 00:11:31,103656
379,2026-02-27 00:11:31,103711
380,2026-02-27 00:11:31,103773
381,2026-02-27 00:11:31,103843
382,2026-02-27 00:11:31,103855
383,2026-02-27 00:11:31,103840
384,2026-02-27 00:11:32,103857
385,2026-02-27 00:11:32,103892
386,2026-02-27 00:11:32,103930
387,2026-02-27 00:11:32,103946
388,2026-02-27 00:11:32,103960
389,2026-02-27 00:11:32,104001
390,2026-02-27 00:11:32,104007
391,2026-02-27 00:11:32,104054
392,2026-02-27 00:11:32,104101
393,2026-02-27 00:11:32,104145
394,2026-02-27 00:11:32,104181
395,2026-02-27 00:11:32,104097
396,2026-02-27 00:11:32,103912
397,2026-02-27 00:11:32,103759
398,2026-02-27 00:11:32,103688
399,2026-02-27 00:11:32,103699
400,2026-02-27 00:11:32,103701
401,2026-02-27 00:11:32,103698
402,2026-02-27 00:11:32,103703
403,2026-02-27 00:11:32,103712
404,2026-02-27 00:11:32,103707
405,2026-02-27 00:11:32,103720
406,2026-02-27 00:11:32,103742
407,2026-02-27 00:11:32,103787
408,2026-02-27 00:11:32,103811
409,2026-02-27 00:11:33,103893
410,2026-02-27 00:11:33,103928
411,2026-02-27 00:11:33,103988
412,2026-02-27 00:11:33,104009
413,2026-02-27 00:11:33,104014
414,2026-02-27 00:11:33,104007
415,2026-02-27 00:11:33,104030
416,2026-02-27 00:11:33,104046
417,2026-02-27 00:11:33,104086
418,2026-02-27 00:11:33,104092
419,2026-02-27 00:11:33,104106
420,2026-02-27 00:11:33,104077
421,2026-02-27 00:11:33,104025
422,2026-02-27 00:11:33,103835
423,2026-02-27 00:11:33,103731
424,2026-02-27 00:11:33,103731
425,2026-02-27 00:11:33,103754
426,2026-02-27 00:11:33,103763
427,2026-02-27 00:11:33,103817
428,2026-02-27 00:11:33,103810
429,2026-02-27 00:11:33,103797
430,2026-02-27 00:11:33,103797
431,2026-02-27 00:11:33,103804
432,2026-02-27 00:11:33,103810
433,2026-02-27 00:11:34,103868
434,2026-02-27 00:11:34,103911
435,2026-02-27 00:11:34,103922
436,2026-02-27 00:11:34,103947
437,2026-02-27 00:11:34,103953
438,2026-02-27 00:11:34,103948
439,2026-02-27 00:11:34,104003
440,2026-02-27 00:11:34,104033
441,2026-02-27 00:11:34,104065
442,2026-02-27 00:11:34,104090
443,2026-02-27 00:11:34,104096
444,2026-02-27 00:11:34,104093
445,2026-02-27 00:11:34,104128
446,2026-02-27 00:11:34,104055
447,2026-02-27 00:11:34,103852
448,2026-02-27 00:11:34,103681
449,2026-02-27 00:11:34,103602
450,2026-02-27 00:11:34,103572
451,2026-02-27 00:11:34,103635
452,2026-02-27 00:11:34,103640
453,2026-02-27 00:11:34,103661
454,2026-02-27 00:11:34,103650
455,2026-02-27 00:11:34,103655
456,2026-02-27 00:11:34,103675
457,2026-02-27 00:11:34,103683
458,2026-02-27 00:11:34,103745
459,2026-02-27 00:11:35,103780
460,2026-02-27 00:11:35,103759
461,2026-02-27 00:11:35,103775
462,2026-02-27 00:11:35,103789
463,2026-02-27 00:11:35,103784
464,2026-02-27 00:11:35,103838
465,2026-02-27 00:11:35,103872
466,2026-02-27 00:11:35,103884
467,2026-02-27 00:11:35,103883
468,2026-02-27 00:11:35,103912
469,2026-02-27 00:11:35,103940
470,2026-02-27 00:11:35,103948
471,2026-02-27 00:11:35,103930
472,2026-02-27 00:11:35,103760
473,2026-02-27 00:11:35,103546
474,2026-02-27 00:11:35,103496
475,2026-02-27 00:11:35,103498
476,2026-02-27 00:11:35,103498
477,2026-02-27 00:11:35,103505
478,2026-02-27 00:11:35,103529
479,2026-02-27 00:11:35,103546
480,2026-02-27 00:11:35,103508
481,2026-02-27 00:11:35,103501
482,2026-02-27 00:11:35,103513
483,2026-02-27 00:11:35,103573
484,2026-02-27 00:11:36,103569
485,2026-02-27 00:11:36,103577
486,2026-02-27 00:11:36,103593
487,2026-02-27 00:11:36,103612
488,2026-02-27 00:11:36,103639
489,2026-02-27 00:11:36,103683
490,2026-02-27 00:11:36,103721
491,2026-02-27 00:11:36,103723
492,2026-02-27 00:11:36,103726
493,2026-02-27 00:11:36,103785
494,2026-02-27 00:11:36,103809
495,2026-02-27 00:11:36,103831
496,2026-02-27 00:11:36,103804
497,2026-02-27 00:11:36,103618
498,2026-02-27 00:11:36,103393
499,2026-02-27 00:11:36,103367
500,2026-02-27 00:11:36,103403
501,2026-02-27 00:11:36,103393
502,2026-02-27 00:11:36,103414
503,2026-02-27 00:11:36,103445
504,2026-02-27 00:11:36,103432
505,2026-02-27 00:11:36,103452
506,2026-02-27 00:11:36,103479
507,2026-02-27 00:11:36,103515
508,2026-02-27 00:11:37,103540
509,2026-02-27 00:11:37,103586
510,2026-02-27 00:11:37,103593
511,2026-02-27 00:11:37,103640
512,2026-02-27 00:11:37,103697
513,2026-02-27 00:11:37,103718
514,2026-02-27 00:11:37,103736
515,2026-02-27 00:11:37,103761
516,2026-02-27 00:11:37,103772
517,2026-02-27 00:11:37,103819
518,2026-02-27 00:11:37,103865
519,2026-02-27 00:11:37,103913
520,2026-02-27 00:11:37,103902
521,2026-02-27 00:11:37,103862
522,2026-02-27 00:11:37,103673
523,2026-02-27 00:11:37,103508
524,2026-02-27 00:11:37,103419
525,2026-02-27 00:11:37,103419
526,2026-02-27 00:11:37,103425
527,2026-02-27 00:11:37,103424
528,2026-02-27 00:11:37,103423
529,2026-02-27 00:11:37,103463
530,2026-02-27 00:11:37,103447
531,2026-02-27 00:11:37,103444
532,2026-02-27 00:11:38,103505
533,2026-02-27 00:11:38,103543
534,2026-02-27 00:11:38,103507
535,2026-02-27 00:11:38,103556
536,2026-02-27 00:11:38,103589
537,2026-02-27 00:11:38,103591
538,2026-02-27 00:11:38,103595
539,2026-02-27 00:11:38,103621
540,2026-02-27 00:11:38,103601
541,2026-02-27 00:11:38,103668
542,2026-02-27 00:11:38,103694
543,2026-02-27 00:11:38,103699
544,2026-02-27 00:11:38,103721
545,2026-02-27 00:11:38,103741
546,2026-02-27 00:11:38,103698
547,2026-02-27 00:11:38,103543
548,2026-02-27 00:11:38,103375
549,2026-02-27 00:11:38,103305
550,2026-02-27 00:11:38,103309
551,2026-02-27 00:11:38,103325
552,2026-02-27 00:11:38,103339
553,2026-02-27 00:11:38,103382
554,2026-02-27 00:11:38,103389
555,2026-02-27 00:11:38,103370
556,2026-02-27 00:11:38,103386
557,2026-02-27 00:11:39,103426
558,2026-02-27 00:11:39,103427
559,2026-02-27 00:11:39,103485
560,2026-02-27 00:11:39,103510
561,2026-02-27 00:11:39,103544
562,2026-02-27 00:11:39,103574
563,2026-02-27 00:11:39,103603
564,2026-02-27 00:11:39,103600
565,2026-02-27 00:11:39,103645
566,2026-02-27 00:11:39,103680
567,2026-02-27 00:11:39,103717
568,2026-02-27 00:11:39,103740
569,2026-02-27 00:11:39,103732
570,2026-02-27 00:11:39,103771
571,2026-02-27 00:11:39,103767
572,2026-02-27 00:11:39,103585
573,2026-02-27 00:11:39,103367
574,2026-02-27 00:11:39,103295
575,2026-02-27 00:11:39,103262
576,2026-02-27 00:11:39,103262
577,2026-02-27 00:11:39,103294
578,2026-02-27 00:11:39,103296
579,2026-02-27 00:11:39,103308
580,2026-02-27 00:11:39,103311
581,2026-02-27 00:11:39,103303
582,2026-02-27 00:11:39,103344
583,2026-02-27 00:11:40,103389
584,2026-02-27 00:11:40,103436
585,2026-02-27 00:11:40,103464
586,2026-02-27 00:11:40,103474
587,2026-02-27 00:11:40,103489
588,2026-02-27 00:11:40,103521
589,2026-02-27 00:11:40,103553
590,2026-02-27 00:11:40,103578
591,2026-02-27 00:11:40,103607
592,2026-02-27 00:11:40,103633
593,2026-02-27 00:11:40,103633
594,2026-02-27 00:11:40,103644
595,2026-02-27 00:11:40,103674
596,2026-02-27 00:11:40,103703
597,2026-02-27 00:11:40,103716
598,2026-02-27 00:11:40,103723
599,2026-02-27 00:11:40,103605
600,2026-02-27 00:11:40,103378
601,2026-02-27 00:11:40,103233
602,2026-02-27 00:11:40,103235
603,2026-02-27 00:11:40,103252
604,2026-02-27 00:11:40,103239
605,2026-02-27 00:11:40,103236
606,2026-02-27 00:11:40,103237
607,2026-02-27 00:11:40,103243
608,2026-02-27 00:11:40,103236
609,2026-02-27 00:11:41,103278
610,2026-02-27 00:11:41,103304
611,2026-02-27 00:11:41,103334
612,2026-02-27 00:11:41,103307
613,2026-02-27 00:11:41,103349
614,2026-02-27 00:11:41,103367
615,2026-02-27 00:11:41,103393
616,2026-02-27 00:11:41,103420
617,2026-02-27 00:11:41,103424
618,2026-02-27 00:11:41,103424
619,2026-02-27 00:11:41,103464
620,2026-02-27 00:11:41,103495
621,2026-02-27 00:11:41,103519
622,2026-02-27 00:11:41,103533
623,2026-02-27 00:11:41,103514
624,2026-02-27 00:11:41,103347
625,2026-02-27 00:11:41,103193
626,2026-02-27 00:11:41,103114
627,2026-02-27 00:11:41,103097
628,2026-02-27 00:11:41,103137
629,2026-02-27 00:11:41,103180
630,2026-02-27 00:11:41,103182
631,2026-02-27 00:11:41,103196
632,2026-02-27 00:11:41,103181
633,2026-02-27 00:11:41,103189
634,2026-02-27 00:11:42,103228
635,2026-02-27 00:11:42,103265
636,2026-02-27 00:11:42,103280
637,2026-02-27 00:11:42,103335
638,2026-02-27 00:11:42,103357
639,2026-02-27 00:11:42,103371
640,2026-02-27 00:11:42,103396
641,2026-02-27 00:11:42,103411
642,2026-02-27 00:11:42,103397
643,2026-02-27 00:11:42,103468
644,2026-02-27 00:11:42,103502
645,2026-02-27 00:11:42,103490
646,2026-02-27 00:11:42,103521
647,2026-02-27 00:11:42,103552
648,2026-02-27 00:11:42,103478
649,2026-02-27 00:11:42,103303
650,2026-02-27 00:11:42,103123
651,2026-02-27 00:11:42,103069
652,2026-02-27 00:11:42,103061
653,2026-02-27 00:11:42,103070
654,2026-02-27 00:11:42,103029
655,2026-02-27 00:11:42,103089
656,2026-02-27 00:11:42,103099
657,2026-02-27 00:11:42,103051
658,2026-02-27 00:11:43,103069
659,2026-02-27 00:11:43,103130
660,2026-02-27 00:11:43,103127
661,2026-02-27 00:11:43,103211
662,2026-02-27 00:11:43,103229
663,2026-02-27 00:11:43,103242
664,2026-02-27 00:11:43,103255
665,2026-02-27 00:11:43,103280
666,2026-02-27 00:11:43,103300
667,2026-02-27 00:11:43,103338
668,2026-02-27 00:11:43,103349
669,2026-02-27 00:11:43,103367
670,2026-02-27 00:11:43,103372
671,2026-02-27 00:11:43,103381
672,2026-02-27 00:11:43,103396
673,2026-02-27 00:11:43,103320
674,2026-02-27 00:11:43,103135
675,2026-02-27 00:11:43,103012
676,2026-02-27 00:11:43,103000
677,2026-02-27 00:11:43,103015
678,2026-02-27 00:11:43,103016
679,2026-02-27 00:11:43,103052
680,2026-02-27 00:11:43,103057
681,2026-02-27 00:11:43,103051
682,2026-02-27 00:11:43,103051
683,2026-02-27 00:11:43,103050
684,2026-02-27 00:11:44,103061
685,2026-02-27 00:11:44,103118
686,2026-02-27 00:11:44,103137
687,2026-02-27 00:11:44,103165
688,2026-02-27 00:11:44,103187
689,2026-02-27 00:11:44,103177
690,2026-02-27 00:11:44,103216
691,2026-02-27 00:11:44,103253
692,2026-02-27 00:11:44,103270
693,2026-02-27 00:11:44,103286
694,2026-02-27 00:11:44,103339
695,2026-02-27 00:11:44,103379
696,2026-02-27 00:11:44,103316
697,2026-02-27 00:11:44,103177
698,2026-02-27 00:11:44,103023
699,2026-02-27 00:11:44,102918
700,2026-02-27 00:11:44,102904
701,2026-02-27 00:11:44,102915
702,2026-02-27 00:11:44,102923
703,2026-02-27 00:11:44,102927
704,2026-02-27 00:11:44,102946
705,2026-02-27 00:11:44,102953
706,2026-02-27 00:11:44,102973
707,2026-02-27 00:11:44,103000
708,2026-02-27 00:11:44,103054
709,2026-02-27 00:11:45,103110
710,2026-02-27 00:11:45,103130
711,2026-02-27 00:11:45,103130
712,2026-02-27 00:11:45,103170
713,2026-02-27 00:11:45,103220
714,2026-02-27 00:11:45,103219
715,2026-02-27 00:11:45,103218
716,2026-02-27 00:11:45,103284
717,2026-02-27 00:11:45,103301
718,2026-02-27 00:11:45,103312
719,2026-02-27 00:11:45,103316
720,2026-02-27 00:11:45,103347
721,2026-02-27 00:11:45,103382
722,2026-02-27 00:11:45,103322
723,2026-02-27 00:11:45,103114
724,2026-02-27 00:11:45,102960
725,2026-02-27 00:11:45,102898
726,2026-02-27 00:11:45,102873
727,2026-02-27 00:11:45,102845
728,2026-02-27 00:11:45,102784
729,2026-02-27 00:11:45,102814
730,2026-02-27 00:11:45,102840
731,2026-02-27 00:11:45,102860
732,2026-02-27 00:11:45,102867
733,2026-02-27 00:11:46,102914
734,2026-02-27 00:11:46,102959
735,2026-02-27 00:11:46,103012
736,2026-02-27 00:11:46,103018
737,2026-02-27 00:11:46,103044
738,2026-02-27 00:11:46,103044
739,2026-02-27 00:11:46,103091
740,2026-02-27 00:11:46,103090
741,2026-02-27 00:11:46,103111
742,2026-02-27 00:11:46,103164
743,2026-02-27 00:11:46,103149
744,2026-02-27 00:11:46,103152
745,2026-02-27 00:11:46,103217
746,2026-02-27 00:11:46,103235
747,2026-02-27 00:11:46,103274
748,2026-02-27 00:11:46,103302
749,2026-02-27 00:11:46,103283
750,2026-02-27 00:11:46,103134
751,2026-02-27 00:11:46,102970
752,2026-02-27 00:11:46,102871
753,2026-02-27 00:11:46,102890
754,2026-02-27 00:11:46,102911
755,2026-02-27 00:11:46,102920
756,2026-02-27 00:11:46,102916
757,2026-02-27 00:11:46,102962
758,2026-02-27 00:11:46,102953
759,2026-02-27 00:11:47,102960
760,2026-02-27 00:11:47,103011
761,2026-02-27 00:11:47,103054
762,2026-02-27 00:11:47,103061
763,2026-02-27 00:11:47,103098
764,2026-02-27 00:11:47,103127
765,2026-02-27 00:11:47,103156
766,2026-02-27 00:11:47,103174
767,2026-02-27 00:11:47,103206
768,2026-02-27 00:11:47,103214
769,2026-02-27 00:11:47,103258
770,2026-02-27 00:11:47,103302
771,2026-02-27 00:11:47,103330
772,2026-02-27 00:11:47,103352
773,2026-02-27 00:11:47,103380
774,2026-02-27 00:11:47,103378
775,2026-02-27 00:11:47,103425
776,2026-02-27 00:11:47,103370
777,2026-02-27 00:11:47,103154
778,2026-02-27 00:11:47,103055
779,2026-02-27 00:11:47,103034
780,2026-02-27 00:11:47,103039
781,2026-02-27 00:11:47,103059
782,2026-02-27 00:11:47,103069
783,2026-02-27 00:11:48,103101
784,2026-02-27 00:11:48,103108
785,2026-02-27 00:11:48,103113
786,2026-02-27 00:11:48,103134
787,2026-02-27 00:11:48,103169
788,2026-02-27 00:11:48,103221
789,2026-02-27 00:11:48,103246
790,2026-02-27 00:11:48,103272
791,2026-02-27 00:11:48,103290
792,2026-02-27 00:11:48,103303
793,2026-02-27 00:11:48,103342
794,2026-02-27 00:11:48,103384
795,2026-02-27 00:11:48,103426
796,2026-02-27 00:11:48,103462
797,2026-02-27 00:11:48,103475
798,2026-02-27 00:11:48,103511
799,2026-02-27 00:11:48,103554
800,2026-02-27 00:11:48,103573
801,2026-02-27 00:11:48,103619
802,2026-02-27 00:11:48,103641
803,2026-02-27 00:11:48,103570
804,2026-02-27 00:11:48,103384
805,2026-02-27 00:11:48,103231
806,2026-02-27 00:11:48,103171
807,2026-02-27 00:11:48,103162
808,2026-02-27 00:11:49,103163
809,2026-02-27 00:11:49,103165
810,2026-02-27 00:11:49,103194
811,2026-02-27 00:11:49,103216
812,2026-02-27 00:11:49,103220
813,2026-02-27 00:11:49,103241
814,2026-02-27 00:11:49,103265
815,2026-02-27 00:11:49,103270
816,2026-02-27 00:11:49,103314
817,2026-02-27 00:11:49,103358
818,2026-02-27 00:11:49,103373
819,2026-02-27 00:11:49,103391
820,2026-02-27 00:11:49,103428
821,2026-02-27 00:11:49,103428
822,2026-02-27 00:11:49,103438
823,2026-02-27 00:11:49,103461
824,2026-02-27 00:11:49,103470
825,2026-02-27 00:11:49,103489
826,2026-02-27 00:11:49,103517
827,2026-02-27 00:11:49,103498
828,2026-02-27 00:11:49,103498
829,2026-02-27 00:11:49,103526
830,2026-02-27 00:11:49,103489
831,2026-02-27 00:11:49,103305
832,2026-02-27 00:11:49,103152
833,2026-02-27 00:11:49,103117
834,2026-02-27 00:11:50,103128
835,2026-02-27 00:11:50,103168
836,2026-02-27 00:11:50,103171
837,2026-02-27 00:11:50,103171
838,2026-02-27 00:11:50,103172
839,2026-02-27 00:11:50,103159
840,2026-02-27 00:11:50,103151
841,2026-02-27 00:11:50,103202
842,2026-02-27 00:11:50,103238
843,2026-02-27 00:11:50,103273
844,2026-02-27 00:11:50,103312
845,2026-02-27 00:11:50,103324
846,2026-02-27 00:11:50,103324
847,2026-02-27 00:11:50,103384
848,2026-02-27 00:11:50,103427
849,2026-02-27 00:11:50,103450
850,2026-02-27 00:11:50,103455
851,2026-02-27 00:11:50,103483
852,2026-02-27 00:11:50,103496
853,2026-02-27 00:11:50,103540
854,2026-02-27 00:11:50,103540
855,2026-02-27 00:11:50,103572
856,2026-02-27 00:11:50,103508
857,2026-02-27 00:11:50,103302
858,2026-02-27 00:11:50,103138
859,2026-02-27 00:11:51,103128
860,2026-02-27 00:11:51,103114
861,2026-02-27 00:11:51,103123
862,2026-02-27 00:11:51,103157
863,2026-02-27 00:11:51,103170
864,2026-02-27 00:11:51,103167
865,2026-02-27 00:11:51,103190
866,2026-02-27 00:11:51,103197
867,2026-02-27 00:11:51,103213
868,2026-02-27 00:11:51,103249
869,2026-02-27 00:11:51,103286
870,2026-02-27 00:11:51,103278
871,2026-02-27 00:11:51,103308
872,2026-02-27 00:11:51,103342
873,2026-02-27 00:11:51,103379
874,2026-02-27 00:11:51,103377
875,2026-02-27 00:11:51,103390
876,2026-02-27 00:11:51,103387
877,2026-02-27 00:11:51,103453
878,2026-02-27 00:11:51,103458
879,2026-02-27 00:11:51,103466
880,2026-02-27 00:11:51,103469
881,2026-02-27 00:11:51,103471
882,2026-02-27 00:11:51,103427
883,2026-02-27 00:11:52,103263
884,2026-02-27 00:11:52,103101
885,2026-02-27 00:11:52,103055
886,2026-02-27 00:11:52,103066
887,2026-02-27 00:11:52,103075
888,2026-02-27 00:11:52,103079
889,2026-02-27 00:11:52,103122
890,2026-02-27 00:11:52,103111
891,2026-02-27 00:11:52,103095
892,2026-02-27 00:11:52,103107
893,2026-02-27 00:11:52,103143
894,2026-02-27 00:11:52,103115
895,2026-02-27 00:11:52,103156
896,2026-02-27 00:11:52,103178
897,2026-02-27 00:11:52,103209
898,2026-02-27 00:11:52,103223
899,2026-02-27 00:11:52,103239
900,2026-02-27 00:11:52,103233
901,2026-02-27 00:11:52,103260
902,2026-02-27 00:11:52,103275
903,2026-02-27 00:11:52,103294
904,2026-02-27 00:11:52,103297
905,2026-02-27 00:11:52,103300
906,2026-02-27 00:11:52,103316
907,2026-02-27 00:11:52,103213
908,2026-02-27 00:11:52,103019
909,2026-02-27 00:11:53,102934
910,2026-02-27 00:11:53,102921
911,2026-02-27 00:11:53,102941
912,2026-02-27 00:11:53,102965
913,2026-02-27 00:11:53,103036
914,2026-02-27 00:11:53,103022
915,2026-02-27 00:11:53,103054
916,2026-02-27 00:11:53,103054
917,2026-02-27 00:11:53,103050
918,2026-02-27 00:11:53,103097
919,2026-02-27 00:11:53,103161
920,2026-02-27 00:11:53,103174
921,2026-02-27 00:11:53,103228
922,2026-02-27 00:11:53,103274
923,2026-02-27 00:11:53,103276
924,2026-02-27 00:11:53,103283
925,2026-02-27 00:11:53,103317
926,2026-02-27 00:11:53,103349
927,2026-02-27 00:11:53,103366
928,2026-02-27 00:11:53,103414
929,2026-02-27 00:11:53,103414
930,2026-02-27 00:11:53,103406
931,2026-02-27 00:11:53,103374
932,2026-02-27 00:11:53,103202
933,2026-02-27 00:11:53,103005
934,2026-02-27 00:11:54,102935
935,2026-02-27 00:11:54,102935
936,2026-02-27 00:11:54,102966
937,2026-02-27 00:11:54,102988
938,2026-02-27 00:11:54,103004
939,2026-02-27 00:11:54,103012
940,2026-02-27 00:11:54,102998
941,2026-02-27 00:11:54,102989
942,2026-02-27 00:11:54,103023
943,2026-02-27 00:11:54,103072
944,2026-02-27 00:11:54,103102
945,2026-02-27 00:11:54,103102
946,2026-02-27 00:11:54,103129
947,2026-02-27 00:11:54,103151
948,2026-02-27 00:11:54,103144
949,2026-02-27 00:11:54,103163
950,2026-02-27 00:11:54,103178
951,2026-02-27 00:11:54,103168
952,2026-02-27 00:11:54,103229
953,2026-02-27 00:11:54,103250
954,2026-02-27 00:11:54,103260
955,2026-02-27 00:11:54,103291
956,2026-02-27 00:11:54,103295
957,2026-02-27 00:11:54,103172
958,2026-02-27 00:11:55,102976
959,2026-02-27 00:11:55,102886
960,2026-02-27 00:11:55,102881
961,2026-02-27 00:11:55,102916
962,2026-02-27 00:11:55,102953
963,2026-02-27 00:11:55,102991
964,2026-02-27 00:11:55,102965
965,2026-02-27 00:11:55,102961
966,2026-02-27 00:11:55,102958
967,2026-02-27 00:11:55,103008
968,2026-02-27 00:11:55,103055
969,2026-02-27 00:11:55,103083
970,2026-02-27 00:11:55,103103
971,2026-02-27 00:11:55,103125
972,2026-02-27 00:11:55,103126
973,2026-02-27 00:11:55,103149
974,2026-02-27 00:11:55,103179
975,2026-02-27 00:11:55,103216
976,2026-02-27 00:11:55,103242
977,2026-02-27 00:11:55,103289
978,2026-02-27 00:11:55,103298
979,2026-02-27 00:11:55,103325
980,2026-02-27 00:11:55,103201
981,2026-02-27 00:11:55,102998
982,2026-02-27 00:11:55,102899
983,2026-02-27 00:11:55,102876
984,2026-02-27 00:11:56,102864
985,2026-02-27 00:11:56,102866
986,2026-02-27 00:11:56,102885
987,2026-02-27 00:11:56,102894
988,2026-02-27 00:11:56,102917
989,2026-02-27 00:11:56,102921
990,2026-02-27 00:11:56,102934
991,2026-02-27 00:11:56,103008
992,2026-02-27 00:11:56,103037
993,2026-02-27 00:11:56,103077
994,2026-02-27 00:11:56,103107
995,2026-02-27 00:11:56,103116
996,2026-02-27 00:11:56,103137
997,2026-02-27 00:11:56,103189
998,2026-02-27 00:11:56,103217
999,2026-02-27 00:11:56,103255
1000,2026-02-27 00:11:56,103297
1001,2026-02-27 00:11:56,103323
1002,2026-02-27 00:11:56,103300
1003,2026-02-27 00:11:56,103311
1004,2026-02-27 00:11:56,103158
1005,2026-02-27 00:11:56,102948
1006,2026-02-27 00:11:56,102841
1007,2026-02-27 00:11:56,102835
1008,2026-02-27 00:11:56,102819
1009,2026-02-27 00:11:57,102834
1010,2026-02-27 00:11:57,102820
1011,2026-02-27 00:11:57,102865
1012,2026-02-27 00:11:57,102858
1013,2026-02-27 00:11:57,102869
1014,2026-02-27 00:11:57,102890
1015,2026-02-27 00:11:57,102928
1016,2026-02-27 00:11:57,102954
1017,2026-02-27 00:11:57,102992
1018,2026-02-27 00:11:57,102996
1019,2026-02-27 00:11:57,103014
1020,2026-02-27 00:11:57,103022
1021,2026-02-27 00:11:57,103055
1022,2026-02-27 00:11:57,103082
1023,2026-02-27 00:11:57,103111
1024,2026-02-27 00:11:57,103125
1025,2026-02-27 00:11:57,103154
1026,2026-02-27 00:11:57,103161
1027,2026-02-27 00:11:57,103164
1028,2026-02-27 00:11:57,103083
1029,2026-02-27 00:11:57,102893
1030,2026-02-27 00:11:57,102752
1031,2026-02-27 00:11:57,102734
1032,2026-02-27 00:11:57,102750
1033,2026-02-27 00:11:58,102765
1034,2026-02-27 00:11:58,102797
1035,2026-02-27 00:11:58,102829
1036,2026-02-27 00:11:58,102818
1037,2026-02-27 00:11:58,102813
1038,2026-02-27 00:11:58,102845
1039,2026-02-27 00:11:58,102911
1040,2026-02-27 00:11:58,102965
1041,2026-02-27 00:11:58,102990
1042,2026-02-27 00:11:58,103028
1043,2026-02-27 00:11:58,103035
1044,2026-02-27 00:11:58,103065
1045,2026-02-27 00:11:58,103087
1046,2026-02-27 00:11:58,103141
1047,2026-02-27 00:11:58,103156
1048,2026-02-27 00:11:58,103174
1049,2026-02-27 00:11:58,103185
1050,2026-02-27 00:11:58,103197
1051,2026-02-27 00:11:58,103179
1052,2026-02-27 00:11:58,102987
1053,2026-02-27 00:11:58,102818
1054,2026-02-27 00:11:58,102758
1055,2026-02-27 00:11:58,102769
1056,2026-02-27 00:11:58,102776
1057,2026-02-27 00:11:58,102783
1058,2026-02-27 00:11:58,102814
1059,2026-02-27 00:11:59,102835
1060,2026-02-27 00:11:59,102854
1061,2026-02-27 00:11:59,102827
1062,2026-02-27 00:11:59,102827
1063,2026-02-27 00:11:59,102872
1064,2026-02-27 00:11:59,102944
1065,2026-02-27 00:11:59,102952
1066,2026-02-27 00:11:59,102947
1067,2026-02-27 00:11:59,102984
1068,2026-02-27 00:11:59,103004
1069,2026-02-27 00:11:59,103024
1070,2026-02-27 00:11:59,103037
1071,2026-02-27 00:11:59,103056
1072,2026-02-27 00:11:59,103111
1073,2026-02-27 00:11:59,103126
1074,2026-02-27 00:11:59,103112
1075,2026-02-27 00:11:59,103153
1076,2026-02-27 00:11:59,103139
1077,2026-02-27 00:11:59,102970
1078,2026-02-27 00:11:59,102770
1079,2026-02-27 00:11:59,102688
1080,2026-02-27 00:11:59,102648
1081,2026-02-27 00:11:59,102679
1082,2026-02-27 00:11:59,102673
1083,2026-02-27 00:11:59,102692
1084,2026-02-27 00:12:00,102711
1085,2026-02-27 00:12:00,102722
1086,2026-02-27 00:12:00,102702
1087,2026-02-27 00:12:00,102760
1088,2026-02-27 00:12:00,102804
1089,2026-02-27 00:12:00,102830
1090,2026-02-27 00:12:00,102858
1091,2026-02-27 00:12:00,102899
1092,2026-02-27 00:12:00,102889
1093,2026-02-27 00:12:00,102940
1094,2026-02-27 00:12:00,102959
1095,2026-02-27 00:12:00,102976
1096,2026-02-27 00:12:00,102980
1097,2026-02-27 00:12:00,103017
1098,2026-02-27 00:12:00,103065
1099,2026-02-27 00:12:00,103089
1100,2026-02-27 00:12:00,103126
1101,2026-02-27 00:12:00,103083
1102,2026-02-27 00:12:00,102885
1103,2026-02-27 00:12:00,102767
1104,2026-02-27 00:12:00,102717
1105,2026-02-27 00:12:00,102745
1106,2026-02-27 00:12:00,102766
1107,2026-02-27 00:12:00,102786
1108,2026-02-27 00:12:01,102820
1109,2026-02-27 00:12:01,102832
1110,2026-02-27 00:12:01,102783
1111,2026-02-27 00:12:01,102824
1112,2026-02-27 00:12:01,102878
1113,2026-02-27 00:12:01,102920
1114,2026-02-27 00:12:01,102937
1115,2026-02-27 00:12:01,102972
1116,2026-02-27 00:12:01,102971
1117,2026-02-27 00:12:01,103009
1118,2026-02-27 00:12:01,103060
1119,2026-02-27 00:12:01,103079
1120,2026-02-27 00:12:01,103107
1121,2026-02-27 00:12:01,103143
1122,2026-02-27 00:12:01,103127
1123,2026-02-27 00:12:01,103201
1124,2026-02-27 00:12:01,103228
1125,2026-02-27 00:12:01,103144
1126,2026-02-27 00:12:01,102992
1127,2026-02-27 00:12:01,102967
1128,2026-02-27 00:12:01,102948
1129,2026-02-27 00:12:01,102992
1130,2026-02-27 00:12:01,103004
1131,2026-02-27 00:12:01,103039
1132,2026-02-27 00:12:01,103068
1133,2026-02-27 00:12:01,103067
1134,2026-02-27 00:12:02,103080
1135,2026-02-27 00:12:02,103148
1136,2026-02-27 00:12:02,103193
1137,2026-02-27 00:12:02,103211
1138,2026-02-27 00:12:02,103237
1139,2026-02-27 00:12:02,103272
1140,2026-02-27 00:12:02,103301
1141,2026-02-27 00:12:02,103356
1142,2026-02-27 00:12:02,103396
1143,2026-02-27 00:12:02,103392
1144,2026-02-27 00:12:02,103422
1145,2026-02-27 00:12:02,103473
1146,2026-02-27 00:12:02,103483
1147,2026-02-27 00:12:02,103504
1148,2026-02-27 00:12:02,103417
1149,2026-02-27 00:12:02,103240
1150,2026-02-27 00:12:02,103146
1151,2026-02-27 00:12:02,103127
1152,2026-02-27 00:12:02,103114
1153,2026-02-27 00:12:02,103144
1154,2026-02-27 00:12:02,103181
1155,2026-02-27 00:12:02,103178
1156,2026-02-27 00:12:02,103181
1157,2026-02-27 00:12:02,103199
1158,2026-02-27 00:12:02,103226
1159,2026-02-27 00:12:03,103287
1160,2026-02-27 00:12:03,103292
1161,2026-02-27 00:12:03,103318
1162,2026-02-27 00:12:03,103371
1163,2026-02-27 00:12:03,103383
1164,2026-02-27 00:12:03,103399
1165,2026-02-27 00:12:03,103414
1166,2026-02-27 00:12:03,103469
1167,2026-02-27 00:12:03,103485
1168,2026-02-27 00:12:03,103488
1169,2026-02-27 00:12:03,103438
1170,2026-02-27 00:12:03,103296
1171,2026-02-27 00:12:03,103190
1172,2026-02-27 00:12:03,103164
1173,2026-02-27 00:12:03,103171
1174,2026-02-27 00:12:03,103181
1175,2026-02-27 00:12:03,103183
1176,2026-02-27 00:12:03,103223
1177,2026-02-27 00:12:03,103249
1178,2026-02-27 00:12:03,103260
1179,2026-02-27 00:12:03,103260
1180,2026-02-27 00:12:03,103281
1181,2026-02-27 00:12:03,103322
1182,2026-02-27 00:12:03,103336
1183,2026-02-27 00:12:04,103359
1184,2026-02-27 00:12:04,103428
1185,2026-02-27 00:12:04,103497
1186,2026-02-27 00:12:04,103596
1187,2026-02-27 00:12:04,103612
1188,2026-02-27 00:12:04,103634
1189,2026-02-27 00:12:04,103681
1190,2026-02-27 00:12:04,103699
1191,2026-02-27 00:12:04,103721
1192,2026-02-27 00:12:04,103724
1193,2026-02-27 00:12:04,103708
1194,2026-02-27 00:12:04,103603
1195,2026-02-27 00:12:04,103430
1196,2026-02-27 00:12:04,103301
1197,2026-02-27 00:12:04,103305
1198,2026-02-27 00:12:04,103282
1199,2026-02-27 00:12:04,103283
1200,2026-02-27 00:12:04,103278
1201,2026-02-27 00:12:04,103311
1202,2026-02-27 00:12:04,103294
1203,2026-02-27 00:12:04,103307
1204,2026-02-27 00:12:04,103345
1205,2026-02-27 00:12:04,103355
1206,2026-02-27 00:12:04,103338
1207,2026-02-27 00:12:04,103398
1208,2026-02-27 00:12:04,103401
1209,2026-02-27 00:12:05,103435
1210,2026-02-27 00:12:05,103460
1211,2026-02-27 00:12:05,103493
1212,2026-02-27 00:12:05,103454
1213,2026-02-27 00:12:05,103536
1214,2026-02-27 00:12:05,103576
1215,2026-02-27 00:12:05,103605
1216,2026-02-27 00:12:05,103580
1217,2026-02-27 00:12:05,103436
1218,2026-02-27 00:12:05,103287
1219,2026-02-27 00:12:05,103266
1220,2026-02-27 00:12:05,103283
1221,2026-02-27 00:12:05,103291
1222,2026-02-27 00:12:05,103328
1223,2026-02-27 00:12:05,103356
1224,2026-02-27 00:12:05,103318
1225,2026-02-27 00:12:05,103340
1226,2026-02-27 00:12:05,103361
1227,2026-02-27 00:12:05,103396
1228,2026-02-27 00:12:05,103444
1229,2026-02-27 00:12:05,103487
1230,2026-02-27 00:12:05,103475
1231,2026-02-27 00:12:05,103526
1232,2026-02-27 00:12:05,103544
1233,2026-02-27 00:12:05,103589
1234,2026-02-27 00:12:06,103610
1235,2026-02-27 00:12:06,103639
1236,2026-02-27 00:12:06,103640
1237,2026-02-27 00:12:06,103689
1238,2026-02-27 00:12:06,103727
1239,2026-02-27 00:12:06,103784
1240,2026-02-27 00:12:06,103710
1241,2026-02-27 00:12:06,103512
1242,2026-02-27 00:12:06,103353
1243,2026-02-27 00:12:06,103339
1244,2026-02-27 00:12:06,103360
1245,2026-02-27 00:12:06,103339
1246,2026-02-27 00:12:06,103368
1247,2026-02-27 00:12:06,103403
1248,2026-02-27 00:12:06,103406
1249,2026-02-27 00:12:06,103426
1250,2026-02-27 00:12:06,103427
1251,2026-02-27 00:12:06,103503
1252,2026-02-27 00:12:06,103558
1253,2026-02-27 00:12:06,103598
1254,2026-02-27 00:12:06,103644
1255,2026-02-27 00:12:06,103686
1256,2026-02-27 00:12:06,103710
1257,2026-02-27 00:12:06,103739
1258,2026-02-27 00:12:07,103774
1259,2026-02-27 00:12:07,103790
1260,2026-02-27 00:12:07,103806
