Packet_Number,Timestamp,Data
1,2026-02-27 00:11:16,101995
2,2026-02-27 00:11:16,101995
3,2026-02-27 00:11:16,102112
4,2026-02-27 00:11:16,102225
5,2026-02-27 00:11:16,102343
6,2026-02-27 00:11:16,102403
7,2026-02-27 00:11:16,102475
8,2026-02-27 00:11:16,102586
9,2026-02-27 00:11:17,102708
10,2026-02-27 00:11:17,102837
11,2026-02-27 00:11:17,102828
12,2026-02-27 00:11:17,102555
13,2026-02-27 00:11:17,102290
14,2026-02-27 00:11:17,102131
15,2026-02-27 00:11:17,102099
16,2026-02-27 00:11:17,102137
17,2026-02-27 00:11:17,102260
18,2026-02-27 00:11:17,102314
19,2026-02-27 00:11:17,102294
20,2026-02-27 00:11:17,102290
21,2026-02-27 00:11:17,102354
22,2026-02-27 00:11:17,102347
23,2026-02-27 00:11:17,102347
24,2026-02-27 00:11:17,102356
25,2026-02-27 00:11:17,102448
26,2026-02-27 00:11:17,102528
27,2026-02-27 00:11:17,102565
28,2026-02-27 00:11:17,102623
29,2026-02-27 00:11:17,102680
30,2026-02-27 00:11:17,102745
31,2026-02-27 00:11:17,102821
32,2026-02-27 00:11:17,102713
33,2026-02-27 00:11:17,102435
34,2026-02-27 00:11:18,102209
35,2026-02-27 00:11:18,102231
36,2026-02-27 00:11:18,102282
37,2026-02-27 00:11:18,102329
38,2026-02-27 00:11:18,102361
39,2026-02-27 00:11:18,102430
40,2026-02-27 00:11:18,102443
41,2026-02-27 00:11:18,102506
42,2026-02-27 00:11:18,102559
43,2026-02-27 00:11:18,102671
44,2026-02-27 00:11:18,102758
45,2026-02-27 00:11:18,102823
46,2026-02-27 00:11:18,102893
47,2026-02-27 00:11:18,102951
48,2026-02-27 00:11:18,102973
49,2026-02-27 00:11:18,103051
50,2026-02-27 00:11:18,103160
51,2026-02-27 00:11:18,103224
52,2026-02-27 00:11:18,103267
53,2026-02-27 00:11:18,103340
54,2026-02-27 00:11:18,103259
55,2026-02-27 00:11:18,102991
56,2026-02-27 00:11:18,102752
57,2026-02-27 00:11:18,102694
58,2026-02-27 00:11:19,102727
59,2026-02-27 00:11:19,102749
60,2026-02-27 00:11:19,102750
61,2026-02-27 00:11:19,102838
62,2026-02-27 00:11:19,102851
63,2026-02-27 00:11:19,102872
64,2026-02-27 00:11:19,102906
65,2026-02-27 00:11:19,102959
66,2026-02-27 00:11:19,103008
67,2026-02-27 00:11:19,103099
68,2026-02-27 00:11:19,103137
69,2026-02-27 00:11:19,103218
70,2026-02-27 00:11:19,103247
71,2026-02-27 00:11:19,103257
72,2026-02-27 00:11:19,103292
73,2026-02-27 00:11:19,103339
74,2026-02-27 00:11:19,103308
75,2026-02-27 00:11:19,103332
76,2026-02-27 00:11:19,103412
77,2026-02-27 00:11:19,103413
78,2026-02-27 00:11:19,103223
79,2026-02-27 00:11:19,102981
80,2026-02-27 00:11:19,102783
81,2026-02-27 00:11:19,102772
82,2026-02-27 00:11:19,102821
83,2026-02-27 00:11:19,102835
84,2026-02-27 00:11:20,102894
85,2026-02-27 00:11:20,102924
86,2026-02-27 00:11:20,102848
87,2026-02-27 00:11:20,102887
88,2026-02-27 00:11:20,102936
89,2026-02-27 00:11:20,102936
90,2026-02-27 00:11:20,103009
91,2026-02-27 00:11:20,103109
92,2026-02-27 00:11:20,103147
93,2026-02-27 00:11:20,103195
94,2026-02-27 00:11:20,103266
95,2026-02-27 00:11:20,103272
96,2026-02-27 00:11:20,103305
97,2026-02-27 00:11:20,103426
98,2026-02-27 00:11:20,103509
99,2026-02-27 00:11:20,103585
100,2026-02-27 00:11:20,103620
101,2026-02-27 00:11:20,103471
102,2026-02-27 00:11:20,103156
103,2026-02-27 00:11:20,102933
104,2026-02-27 00:11:20,102885
105,2026-02-27 00:11:20,102860
106,2026-02-27 00:11:20,102869
107,2026-02-27 00:11:20,102880
108,2026-02-27 00:11:21,102870
109,2026-02-27 00:11:21,102891
110,2026-02-27 00:11:21,102895
111,2026-02-27 00:11:21,102880
112,2026-02-27 00:11:21,102945
113,2026-02-27 00:11:21,103007
114,2026-02-27 00:11:21,103095
115,2026-02-27 00:11:21,103175
116,2026-02-27 00:11:21,103204
117,2026-02-27 00:11:21,103259
118,2026-02-27 00:11:21,103291
119,2026-02-27 00:11:21,103324
120,2026-02-27 00:11:21,103361
121,2026-02-27 00:11:21,103361
122,2026-02-27 00:11:21,103394
123,2026-02-27 00:11:21,103428
124,2026-02-27 00:11:21,103481
125,2026-02-27 00:11:21,103389
126,2026-02-27 00:11:21,103028
127,2026-02-27 00:11:21,102705
128,2026-02-27 00:11:21,102513
129,2026-02-27 00:11:21,102483
130,2026-02-27 00:11:21,102509
131,2026-02-27 00:11:21,102535
132,2026-02-27 00:11:21,102567
133,2026-02-27 00:11:22,102546
134,2026-02-27 00:11:22,102505
135,2026-02-27 00:11:22,102510
136,2026-02-27 00:11:22,102537
137,2026-02-27 00:11:22,102555
138,2026-02-27 00:11:22,102559
139,2026-02-27 00:11:22,102598
140,2026-02-27 00:11:22,102594
141,2026-02-27 00:11:22,102602
142,2026-02-27 00:11:22,102640
143,2026-02-27 00:11:22,102641
144,2026-02-27 00:11:22,102627
145,2026-02-27 00:11:22,102701
146,2026-02-27 00:11:22,102750
147,2026-02-27 00:11:22,102792
148,2026-02-27 00:11:22,102778
149,2026-02-27 00:11:22,102532
150,2026-02-27 00:11:22,102147
151,2026-02-27 00:11:22,101965
152,2026-02-27 00:11:22,101921
153,2026-02-27 00:11:22,101969
154,2026-02-27 00:11:22,102021
155,2026-02-27 00:11:22,102029
156,2026-02-27 00:11:22,101991
157,2026-02-27 00:11:22,101940
158,2026-02-27 00:11:22,101969
159,2026-02-27 00:11:23,102036
160,2026-02-27 00:11:23,102069
161,2026-02-27 00:11:23,102158
162,2026-02-27 00:11:23,102185
163,2026-02-27 00:11:23,102244
164,2026-02-27 00:11:23,102327
165,2026-02-27 00:11:23,102384
166,2026-02-27 00:11:23,102420
167,2026-02-27 00:11:23,102476
168,2026-02-27 00:11:23,102510
169,2026-02-27 00:11:23,102554
170,2026-02-27 00:11:23,102634
171,2026-02-27 00:11:23,102450
172,2026-02-27 00:11:23,102005
173,2026-02-27 00:11:23,101752
174,2026-02-27 00:11:23,101680
175,2026-02-27 00:11:23,101695
176,2026-02-27 00:11:23,101758
177,2026-02-27 00:11:23,101822
178,2026-02-27 00:11:23,101830
179,2026-02-27 00:11:23,101836
180,2026-02-27 00:11:23,101792
181,2026-02-27 00:11:23,101853
182,2026-02-27 00:11:23,101926
183,2026-02-27 00:11:24,101949
184,2026-02-27 00:11:24,101991
185,2026-02-27 00:11:24,102053
186,2026-02-27 00:11:24,102049
187,2026-02-27 00:11:24,102103
188,2026-02-27 00:11:24,102161
189,2026-02-27 00:11:24,102182
190,2026-02-27 00:11:24,102252
191,2026-02-27 00:11:24,102325
192,2026-02-27 00:11:24,102323
193,2026-02-27 00:11:24,102321
194,2026-02-27 00:11:24,102043
195,2026-02-27 00:11:24,101513
196,2026-02-27 00:11:24,101054
197,2026-02-27 00:11:24,100961
198,2026-02-27 00:11:24,101010
199,2026-02-27 00:11:24,101094
200,2026-02-27 00:11:24,101160
201,2026-02-27 00:11:24,101257
202,2026-02-27 00:11:24,101390
203,2026-02-27 00:11:24,101466
204,2026-02-27 00:11:24,101587
205,2026-02-27 00:11:24,101756
206,2026-02-27 00:11:24,101838
207,2026-02-27 00:11:24,101909
208,2026-02-27 00:11:25,101989
209,2026-02-27 00:11:25,102036
210,2026-02-27 00:11:25,102028
211,2026-02-27 00:11:25,102070
212,2026-02-27 00:11:25,102125
213,2026-02-27 00:11:25,102232
214,2026-02-27 00:11:25,102352
215,2026-02-27 00:11:25,102393
216,2026-02-27 00:11:25,102414
217,2026-02-27 00:11:25,102209
218,2026-02-27 00:11:25,101787
219,2026-02-27 00:11:25,101585
220,2026-02-27 00:11:25,101591
221,2026-02-27 00:11:25,101628
222,2026-02-27 00:11:25,101707
223,2026-02-27 00:11:25,101751
224,2026-02-27 00:11:25,101714
225,2026-02-27 00:11:25,101706
226,2026-02-27 00:11:25,101751
227,2026-02-27 00:11:25,101773
228,2026-02-27 00:11:25,101794
229,2026-02-27 00:11:25,101907
230,2026-02-27 00:11:25,101982
231,2026-02-27 00:11:25,102003
232,2026-02-27 00:11:25,102059
233,2026-02-27 00:11:25,102114
234,2026-02-27 00:11:26,102142
235,2026-02-27 00:11:26,102215
236,2026-02-27 00:11:26,102308
237,2026-02-27 00:11:26,102362
238,2026-02-27 00:11:26,102362
239,2026-02-27 00:11:26,102348
240,2026-02-27 00:11:26,102087
241,2026-02-27 00:11:26,101659
242,2026-02-27 00:11:26,101422
243,2026-02-27 00:11:26,101405
244,2026-02-27 00:11:26,101395
245,2026-02-27 00:11:26,101448
246,2026-02-27 00:11:26,101502
247,2026-02-27 00:11:26,101500
248,2026-02-27 00:11:26,101432
249,2026-02-27 00:11:26,101436
250,2026-02-27 00:11:26,101495
251,2026-02-27 00:11:26,101531
252,2026-02-27 00:11:26,101523
253,2026-02-27 00:11:26,101635
254,2026-02-27 00:11:26,101697
255,2026-02-27 00:11:26,101659
256,2026-02-27 00:11:26,101663
257,2026-02-27 00:11:26,101764
258,2026-02-27 00:11:27,101754
259,2026-02-27 00:11:27,101807
260,2026-02-27 00:11:27,101900
261,2026-02-27 00:11:27,101936
262,2026-02-27 00:11:27,101962
263,2026-02-27 00:11:27,101705
264,2026-02-27 00:11:27,101191
265,2026-02-27 00:11:27,100952
266,2026-02-27 00:11:27,100955
267,2026-02-27 00:11:27,100944
268,2026-02-27 00:11:27,100903
269,2026-02-27 00:11:27,100925
270,2026-02-27 00:11:27,100924
271,2026-02-27 00:11:27,100927
272,2026-02-27 00:11:27,100908
273,2026-02-27 00:11:27,100943
274,2026-02-27 00:11:27,101022
275,2026-02-27 00:11:27,101096
276,2026-02-27 00:11:27,101139
277,2026-02-27 00:11:27,101193
278,2026-02-27 00:11:27,101220
279,2026-02-27 00:11:27,101248
280,2026-02-27 00:11:27,101286
281,2026-02-27 00:11:27,101329
282,2026-02-27 00:11:27,101338
283,2026-02-27 00:11:28,101384
284,2026-02-27 00:11:28,101379
285,2026-02-27 00:11:28,101417
286,2026-02-27 00:11:28,101405
287,2026-02-27 00:11:28,101162
288,2026-02-27 00:11:28,100781
289,2026-02-27 00:11:28,100588
290,2026-02-27 00:11:28,100584
291,2026-02-27 00:11:28,100610
292,2026-02-27 00:11:28,100678
293,2026-02-27 00:11:28,100723
294,2026-02-27 00:11:28,100744
295,2026-02-27 00:11:28,100793
296,2026-02-27 00:11:28,100839
297,2026-02-27 00:11:28,100938
298,2026-02-27 00:11:28,100959
299,2026-02-27 00:11:28,101071
300,2026-02-27 00:11:28,101158
301,2026-02-27 00:11:28,101203
302,2026-02-27 00:11:28,101290
303,2026-02-27 00:11:28,101358
304,2026-02-27 00:11:28,101398
305,2026-02-27 00:11:28,101419
306,2026-02-27 00:11:28,101471
307,2026-02-27 00:11:28,101583
308,2026-02-27 00:11:28,101577
309,2026-02-27 00:11:29,101599
310,2026-02-27 00:11:29,101684
311,2026-02-27 00:11:29,101746
312,2026-02-27 00:11:29,101731
313,2026-02-27 00:11:29,101624
314,2026-02-27 00:11:29,101311
315,2026-02-27 00:11:29,100909
316,2026-02-27 00:11:29,100700
317,2026-02-27 00:11:29,100760
318,2026-02-27 00:11:29,100743
319,2026-02-27 00:11:29,100764
320,2026-02-27 00:11:29,100905
321,2026-02-27 00:11:29,100945
322,2026-02-27 00:11:29,100986
323,2026-02-27 00:11:29,101041
324,2026-02-27 00:11:29,101093
325,2026-02-27 00:11:29,101196
326,2026-02-27 00:11:29,101313
327,2026-02-27 00:11:29,101366
328,2026-02-27 00:11:29,101345
329,2026-02-27 00:11:29,101321
330,2026-02-27 00:11:29,101321
331,2026-02-27 00:11:29,101386
332,2026-02-27 00:11:29,101364
333,2026-02-27 00:11:29,101348
334,2026-02-27 00:11:30,101409
335,2026-02-27 00:11:30,101521
336,2026-02-27 00:11:30,101485
337,2026-02-27 00:11:30,101540
338,2026-02-27 00:11:30,101632
339,2026-02-27 00:11:30,101557
340,2026-02-27 00:11:30,101297
341,2026-02-27 00:11:30,100966
342,2026-02-27 00:11:30,100617
343,2026-02-27 00:11:30,100384
344,2026-02-27 00:11:30,100420
345,2026-02-27 00:11:30,100541
346,2026-02-27 00:11:30,100575
347,2026-02-27 00:11:30,100584
348,2026-02-27 00:11:30,100686
349,2026-02-27 00:11:30,100867
350,2026-02-27 00:11:30,100956
351,2026-02-27 00:11:30,101087
352,2026-02-27 00:11:30,101247
353,2026-02-27 00:11:30,101373
354,2026-02-27 00:11:30,101450
355,2026-02-27 00:11:30,101407
356,2026-02-27 00:11:30,101426
357,2026-02-27 00:11:30,101500
358,2026-02-27 00:11:31,101500
359,2026-02-27 00:11:31,101544
360,2026-02-27 00:11:31,101493
361,2026-02-27 00:11:31,101540
362,2026-02-27 00:11:31,101668
363,2026-02-27 00:11:31,101736
364,2026-02-27 00:11:31,101774
365,2026-02-27 00:11:31,101839
366,2026-02-27 00:11:31,101892
367,2026-02-27 00:11:31,101910
368,2026-02-27 00:11:31,101651
369,2026-02-27 00:11:31,101237
370,2026-02-27 00:11:31,100966
371,2026-02-27 00:11:31,100979
372,2026-02-27 00:11:31,101026
373,2026-02-27 00:11:31,100997
374,2026-02-27 00:11:31,101079
375,2026-02-27 00:11:31,101107
376,2026-02-27 00:11:31,101061
377,2026-02-27 00:11:31,101051
378,2026-02-27 00:11:31,101035
379,2026-02-27 00:11:31,101124
380,2026-02-27 00:11:31,101270
381,2026-02-27 00:11:31,101422
382,2026-02-27 00:11:31,101431
383,2026-02-27 00:11:31,101422
384,2026-02-27 00:11:32,101479
385,2026-02-27 00:11:32,101541
386,2026-02-27 00:11:32,101614
387,2026-02-27 00:11:32,101661
388,2026-02-27 00:11:32,101689
389,2026-02-27 00:11:32,101762
390,2026-02-27 00:11:32,101813
391,2026-02-27 00:11:32,101931
392,2026-02-27 00:11:32,102031
393,2026-02-27 00:11:32,102106
394,2026-02-27 00:11:32,102129
395,2026-02-27 00:11:32,101996
396,2026-02-27 00:11:32,101587
397,2026-02-27 00:11:32,101232
398,2026-02-27 00:11:32,101068
399,2026-02-27 00:11:32,101102
400,2026-02-27 00:11:32,101111
401,2026-02-27 00:11:32,101103
402,2026-02-27 00:11:32,101134
403,2026-02-27 00:11:32,101153
404,2026-02-27 00:11:32,101146
405,2026-02-27 00:11:32,101176
406,2026-02-27 00:11:32,101247
407,2026-02-27 00:11:32,101336
408,2026-02-27 00:11:32,101422
409,2026-02-27 00:11:33,101576
410,2026-02-27 00:11:33,101661
411,2026-02-27 00:11:33,101768
412,2026-02-27 00:11:33,101809
413,2026-02-27 00:11:33,101834
414,2026-02-27 00:11:33,101836
415,2026-02-27 00:11:33,101867
416,2026-02-27 00:11:33,101909
417,2026-02-27 00:11:33,101976
418,2026-02-27 00:11:33,102002
419,2026-02-27 00:11:33,102024
420,2026-02-27 00:11:33,102016
421,2026-02-27 00:11:33,101858
422,2026-02-27 00:11:33,101446
423,2026-02-27 00:11:33,101197
424,2026-02-27 00:11:33,101189
425,2026-02-27 00:11:33,101272
426,2026-02-27 00:11:33,101316
427,2026-02-27 00:11:33,101421
428,2026-02-27 00:11:33,101408
429,2026-02-27 00:11:33,101368
430,2026-02-27 00:11:33,101375
431,2026-02-27 00:11:33,101390
432,2026-02-27 00:11:33,101428
433,2026-02-27 00:11:34,101554
434,2026-02-27 00:11:34,101638
435,2026-02-27 00:11:34,101673
436,2026-02-27 00:11:34,101726
437,2026-02-27 00:11:34,101748
438,2026-02-27 00:11:34,101768
439,2026-02-27 00:11:34,101856
440,2026-02-27 00:11:34,101914
441,2026-02-27 00:11:34,101972
442,2026-02-27 00:11:34,102045
443,2026-02-27 00:11:34,102050
444,2026-02-27 00:11:34,102070
445,2026-02-27 00:11:34,102132
446,2026-02-27 00:11:34,101978
447,2026-02-27 00:11:34,101510
448,2026-02-27 00:11:34,101131
449,2026-02-27 00:11:34,100991
450,2026-02-27 00:11:34,100993
451,2026-02-27 00:11:34,101073
452,2026-02-27 00:11:34,101089
453,2026-02-27 00:11:34,101107
454,2026-02-27 00:11:34,101104
455,2026-02-27 00:11:34,101140
456,2026-02-27 00:11:34,101179
457,2026-02-27 00:11:34,101183
458,2026-02-27 00:11:34,101325
459,2026-02-27 00:11:35,101403
460,2026-02-27 00:11:35,101362
461,2026-02-27 00:11:35,101390
462,2026-02-27 00:11:35,101449
463,2026-02-27 00:11:35,101428
464,2026-02-27 00:11:35,101516
465,2026-02-27 00:11:35,101607
466,2026-02-27 00:11:35,101630
467,2026-02-27 00:11:35,101625
468,2026-02-27 00:11:35,101697
469,2026-02-27 00:11:35,101744
470,2026-02-27 00:11:35,101752
471,2026-02-27 00:11:35,101732
472,2026-02-27 00:11:35,101362
473,2026-02-27 00:11:35,100924
474,2026-02-27 00:11:35,100783
475,2026-02-27 00:11:35,100798
476,2026-02-27 00:11:35,100798
477,2026-02-27 00:11:35,100802
478,2026-02-27 00:11:35,100846
479,2026-02-27 00:11:35,100909
480,2026-02-27 00:11:35,100864
481,2026-02-27 00:11:35,100842
482,2026-02-27 00:11:35,100874
483,2026-02-27 00:11:35,100933
484,2026-02-27 00:11:36,100958
485,2026-02-27 00:11:36,100984
486,2026-02-27 00:11:36,101050
487,2026-02-27 00:11:36,101080
488,2026-02-27 00:11:36,101126
489,2026-02-27 00:11:36,101236
490,2026-02-27 00:11:36,101316
491,2026-02-27 00:11:36,101321
492,2026-02-27 00:11:36,101361
493,2026-02-27 00:11:36,101462
494,2026-02-27 00:11:36,101490
495,2026-02-27 00:11:36,101548
496,2026-02-27 00:11:36,101490
497,2026-02-27 00:11:36,101085
498,2026-02-27 00:11:36,100635
499,2026-02-27 00:11:36,100564
500,2026-02-27 00:11:36,100631
501,2026-02-27 00:11:36,100605
502,2026-02-27 00:11:36,100648
503,2026-02-27 00:11:36,100732
504,2026-02-27 00:11:36,100717
505,2026-02-27 00:11:36,100743
506,2026-02-27 00:11:36,100793
507,2026-02-27 00:11:36,100862
508,2026-02-27 00:11:37,100919
509,2026-02-27 00:11:37,101036
510,2026-02-27 00:11:37,101093
511,2026-02-27 00:11:37,101171
512,2026-02-27 00:11:37,101248
513,2026-02-27 00:11:37,101323
514,2026-02-27 00:11:37,101368
515,2026-02-27 00:11:37,101416
516,2026-02-27 00:11:37,101481
517,2026-02-27 00:11:37,101535
518,2026-02-27 00:11:37,101652
519,2026-02-27 00:11:37,101728
520,2026-02-27 00:11:37,101725
521,2026-02-27 00:11:37,101635
522,2026-02-27 00:11:37,101252
523,2026-02-27 00:11:37,100865
524,2026-02-27 00:11:37,100682
525,2026-02-27 00:11:37,100678
526,2026-02-27 00:11:37,100672
527,2026-02-27 00:11:37,100673
528,2026-02-27 00:11:37,100719
529,2026-02-27 00:11:37,100791
530,2026-02-27 00:11:37,100742
531,2026-02-27 00:11:37,100737
532,2026-02-27 00:11:38,100879
533,2026-02-27 00:11:38,100945
534,2026-02-27 00:11:38,100898
535,2026-02-27 00:11:38,100962
536,2026-02-27 00:11:38,101035
537,2026-02-27 00:11:38,101030
538,2026-02-27 00:11:38,101078
539,2026-02-27 00:11:38,101124
540,2026-02-27 00:11:38,101141
541,2026-02-27 00:11:38,101206
542,2026-02-27 00:11:38,101246
543,2026-02-27 00:11:38,101295
544,2026-02-27 00:11:38,101349
545,2026-02-27 00:11:38,101386
546,2026-02-27 00:11:38,101305
547,2026-02-27 00:11:38,100961
548,2026-02-27 00:11:38,100588
549,2026-02-27 00:11:38,100433
550,2026-02-27 00:11:38,100465
551,2026-02-27 00:11:38,100491
552,2026-02-27 00:11:38,100521
553,2026-02-27 00:11:38,100629
554,2026-02-27 00:11:38,100615
555,2026-02-27 00:11:38,100574
556,2026-02-27 00:11:38,100621
557,2026-02-27 00:11:39,100687
558,2026-02-27 00:11:39,100728
559,2026-02-27 00:11:39,100821
560,2026-02-27 00:11:39,100887
561,2026-02-27 00:11:39,100936
562,2026-02-27 00:11:39,101015
563,2026-02-27 00:11:39,101084
564,2026-02-27 00:11:39,101102
565,2026-02-27 00:11:39,101159
566,2026-02-27 00:11:39,101221
567,2026-02-27 00:11:39,101333
568,2026-02-27 00:11:39,101389
569,2026-02-27 00:11:39,101386
570,2026-02-27 00:11:39,101439
571,2026-02-27 00:11:39,101409
572,2026-02-27 00:11:39,101009
573,2026-02-27 00:11:39,100553
574,2026-02-27 00:11:39,100394
575,2026-02-27 00:11:39,100324
576,2026-02-27 00:11:39,100340
577,2026-02-27 00:11:39,100411
578,2026-02-27 00:11:39,100407
579,2026-02-27 00:11:39,100417
580,2026-02-27 00:11:39,100430
581,2026-02-27 00:11:39,100433
582,2026-02-27 00:11:39,100520
583,2026-02-27 00:11:40,100608
584,2026-02-27 00:11:40,100708
585,2026-02-27 00:11:40,100771
586,2026-02-27 00:11:40,100792
587,2026-02-27 00:11:40,100850
588,2026-02-27 00:11:40,100917
589,2026-02-27 00:11:40,100955
590,2026-02-27 00:11:40,101006
591,2026-02-27 00:11:40,101083
592,2026-02-27 00:11:40,101127
593,2026-02-27 00:11:40,101127
594,2026-02-27 00:11:40,101154
595,2026-02-27 00:11:40,101203
596,2026-02-27 00:11:40,101255
597,2026-02-27 00:11:40,101316
598,2026-02-27 00:11:40,101312
599,2026-02-27 00:11:40,101063
600,2026-02-27 00:11:40,100554
601,2026-02-27 00:11:40,100252
602,2026-02-27 00:11:40,100260
603,2026-02-27 00:11:40,100285
604,2026-02-27 00:11:40,100250
605,2026-02-27 00:11:40,100250
606,2026-02-27 00:11:40,100285
607,2026-02-27 00:11:40,100286
608,2026-02-27 00:11:40,100263
609,2026-02-27 00:11:41,100339
610,2026-02-27 00:11:41,100406
611,2026-02-27 00:11:41,100434
612,2026-02-27 00:11:41,100430
613,2026-02-27 00:11:41,100517
614,2026-02-27 00:11:41,100556
615,2026-02-27 00:11:41,100606
616,2026-02-27 00:11:41,100667
617,2026-02-27 00:11:41,100687
618,2026-02-27 00:11:41,100681
619,2026-02-27 00:11:41,100744
620,2026-02-27 00:11:41,100809
621,2026-02-27 00:11:41,100869
622,2026-02-27 00:11:41,100885
623,2026-02-27 00:11:41,100861
624,2026-02-27 00:11:41,100527
625,2026-02-27 00:11:41,100160
626,2026-02-27 00:11:41,99993
627,2026-02-27 00:11:41,100003
628,2026-02-27 00:11:41,100054
629,2026-02-27 00:11:41,100123
630,2026-02-27 00:11:41,100187
631,2026-02-27 00:11:41,100196
632,2026-02-27 00:11:41,100162
633,2026-02-27 00:11:41,100171
634,2026-02-27 00:11:42,100243
635,2026-02-27 00:11:42,100358
636,2026-02-27 00:11:42,100362
637,2026-02-27 00:11:42,100471
638,2026-02-27 00:11:42,100530
639,2026-02-27 00:11:42,100551
640,2026-02-27 00:11:42,100606
641,2026-02-27 00:11:42,100650
642,2026-02-27 00:11:42,100648
643,2026-02-27 00:11:42,100773
644,2026-02-27 00:11:42,100844
645,2026-02-27 00:11:42,100810
646,2026-02-27 00:11:42,100872
647,2026-02-27 00:11:42,100952
648,2026-02-27 00:11:42,100816
649,2026-02-27 00:11:42,100408
650,2026-02-27 00:11:42,100020
651,2026-02-27 00:11:42,99899
652,2026-02-27 00:11:42,99906
653,2026-02-27 00:11:42,99883
654,2026-02-27 00:11:42,99850
655,2026-02-27 00:11:42,99959
656,2026-02-27 00:11:42,99988
657,2026-02-27 00:11:42,99892
658,2026-02-27 00:11:43,99946
659,2026-02-27 00:11:43,100038
660,2026-02-27 00:11:43,100071
661,2026-02-27 00:11:43,100210
662,2026-02-27 00:11:43,100273
663,2026-02-27 00:11:43,100286
664,2026-02-27 00:11:43,100308
665,2026-02-27 00:11:43,100344
666,2026-02-27 00:11:43,100401
667,2026-02-27 00:11:43,100475
668,2026-02-27 00:11:43,100478
669,2026-02-27 00:11:43,100511
670,2026-02-27 00:11:43,100538
671,2026-02-27 00:11:43,100549
672,2026-02-27 00:11:43,100603
673,2026-02-27 00:11:43,100427
674,2026-02-27 00:11:43,100014
675,2026-02-27 00:11:43,99763
676,2026-02-27 00:11:43,99717
677,2026-02-27 00:11:43,99787
678,2026-02-27 00:11:43,99807
679,2026-02-27 00:11:43,99852
680,2026-02-27 00:11:43,99869
681,2026-02-27 00:11:43,99849
682,2026-02-27 00:11:43,99850
683,2026-02-27 00:11:43,99866
684,2026-02-27 00:11:44,99901
685,2026-02-27 00:11:44,100014
686,2026-02-27 00:11:44,100074
687,2026-02-27 00:11:44,100106
688,2026-02-27 00:11:44,100109
689,2026-02-27 00:11:44,100124
690,2026-02-27 00:11:44,100225
691,2026-02-27 00:11:44,100291
692,2026-02-27 00:11:44,100334
693,2026-02-27 00:11:44,100378
694,2026-02-27 00:11:44,100476
695,2026-02-27 00:11:44,100547
696,2026-02-27 00:11:44,100437
697,2026-02-27 00:11:44,100132
698,2026-02-27 00:11:44,99798
699,2026-02-27 00:11:44,99575
700,2026-02-27 00:11:44,99566
701,2026-02-27 00:11:44,99598
702,2026-02-27 00:11:44,99628
703,2026-02-27 00:11:44,99604
704,2026-02-27 00:11:44,99652
705,2026-02-27 00:11:44,99687
706,2026-02-27 00:11:44,99709
707,2026-02-27 00:11:44,99782
708,2026-02-27 00:11:44,99889
709,2026-02-27 00:11:45,99971
710,2026-02-27 00:11:45,100038
711,2026-02-27 00:11:45,100038
712,2026-02-27 00:11:45,100107
713,2026-02-27 00:11:45,100215
714,2026-02-27 00:11:45,100271
715,2026-02-27 00:11:45,100262
716,2026-02-27 00:11:45,100361
717,2026-02-27 00:11:45,100420
718,2026-02-27 00:11:45,100392
719,2026-02-27 00:11:45,100421
720,2026-02-27 00:11:45,100478
721,2026-02-27 00:11:45,100542
722,2026-02-27 00:11:45,100427
723,2026-02-27 00:11:45,99992
724,2026-02-27 00:11:45,99652
725,2026-02-27 00:11:45,99527
726,2026-02-27 00:11:45,99487
727,2026-02-27 00:11:45,99407
728,2026-02-27 00:11:45,99286
729,2026-02-27 00:11:45,99361
730,2026-02-27 00:11:45,99409
731,2026-02-27 00:11:45,99464
732,2026-02-27 00:11:45,99503
733,2026-02-27 00:11:46,99569
734,2026-02-27 00:11:46,99682
735,2026-02-27 00:11:46,99766
736,2026-02-27 00:11:46,99777
737,2026-02-27 00:11:46,99840
738,2026-02-27 00:11:46,99863
739,2026-02-27 00:11:46,99915
740,2026-02-27 00:11:46,99889
741,2026-02-27 00:11:46,99975
742,2026-02-27 00:11:46,100077
743,2026-02-27 00:11:46,100044
744,2026-02-27 00:11:46,100088
745,2026-02-27 00:11:46,100176
746,2026-02-27 00:11:46,100223
747,2026-02-27 00:11:46,100279
748,2026-02-27 00:11:46,100344
749,2026-02-27 00:11:46,100307
750,2026-02-27 00:11:46,100028
751,2026-02-27 00:11:46,99658
752,2026-02-27 00:11:46,99455
753,2026-02-27 00:11:46,99493
754,2026-02-27 00:11:46,99549
755,2026-02-27 00:11:46,99551
756,2026-02-27 00:11:46,99599
757,2026-02-27 00:11:46,99676
758,2026-02-27 00:11:46,99662
759,2026-02-27 00:11:47,99667
760,2026-02-27 00:11:47,99775
761,2026-02-27 00:11:47,99880
762,2026-02-27 00:11:47,99920
763,2026-02-27 00:11:47,99964
764,2026-02-27 00:11:47,100021
765,2026-02-27 00:11:47,100082
766,2026-02-27 00:11:47,100130
767,2026-02-27 00:11:47,100197
768,2026-02-27 00:11:47,100236
769,2026-02-27 00:11:47,100316
770,2026-02-27 00:11:47,100389
771,2026-02-27 00:11:47,100452
772,2026-02-27 00:11:47,100480
773,2026-02-27 00:11:47,100580
774,2026-02-27 00:11:47,100578
775,2026-02-27 00:11:47,100666
776,2026-02-27 00:11:47,100505
777,2026-02-27 00:11:47,100055
778,2026-02-27 00:11:47,99851
779,2026-02-27 00:11:47,99829
780,2026-02-27 00:11:47,99823
781,2026-02-27 00:11:47,99897
782,2026-02-27 00:11:47,99920
783,2026-02-27 00:11:48,99968
784,2026-02-27 00:11:48,99998
785,2026-02-27 00:11:48,100020
786,2026-02-27 00:11:48,100056
787,2026-02-27 00:11:48,100130
788,2026-02-27 00:11:48,100238
789,2026-02-27 00:11:48,100285
790,2026-02-27 00:11:48,100344
791,2026-02-27 00:11:48,100402
792,2026-02-27 00:11:48,100428
793,2026-02-27 00:11:48,100513
794,2026-02-27 00:11:48,100581
795,2026-02-27 00:11:48,100665
796,2026-02-27 00:11:48,100730
797,2026-02-27 00:11:48,100793
798,2026-02-27 00:11:48,100867
799,2026-02-27 00:11:48,100958
800,2026-02-27 00:11:48,100991
801,2026-02-27 00:11:48,101074
802,2026-02-27 00:11:48,101147
803,2026-02-27 00:11:48,101001
804,2026-02-27 00:11:48,100615
805,2026-02-27 00:11:48,100249
806,2026-02-27 00:11:48,100105
807,2026-02-27 00:11:48,100117
808,2026-02-27 00:11:49,100111
809,2026-02-27 00:11:49,100127
810,2026-02-27 00:11:49,100198
811,2026-02-27 00:11:49,100242
812,2026-02-27 00:11:49,100267
813,2026-02-27 00:11:49,100294
814,2026-02-27 00:11:49,100348
815,2026-02-27 00:11:49,100398
816,2026-02-27 00:11:49,100479
817,2026-02-27 00:11:49,100562
818,2026-02-27 00:11:49,100597
819,2026-02-27 00:11:49,100642
820,2026-02-27 00:11:49,100711
821,2026-02-27 00:11:49,100727
822,2026-02-27 00:11:49,100757
823,2026-02-27 00:11:49,100763
824,2026-02-27 00:11:49,100792
825,2026-02-27 00:11:49,100828
826,2026-02-27 00:11:49,100868
827,2026-02-27 00:11:49,100869
828,2026-02-27 00:11:49,100869
829,2026-02-27 00:11:49,100902
830,2026-02-27 00:11:49,100834
831,2026-02-27 00:11:49,100437
832,2026-02-27 00:11:49,100118
833,2026-02-27 00:11:49,100040
834,2026-02-27 00:11:50,100068
835,2026-02-27 00:11:50,100166
836,2026-02-27 00:11:50,100178
837,2026-02-27 00:11:50,100182
838,2026-02-27 00:11:50,100184
839,2026-02-27 00:11:50,100143
840,2026-02-27 00:11:50,100157
841,2026-02-27 00:11:50,100250
842,2026-02-27 00:11:50,100323
843,2026-02-27 00:11:50,100424
844,2026-02-27 00:11:50,100504
845,2026-02-27 00:11:50,100547
846,2026-02-27 00:11:50,100559
847,2026-02-27 00:11:50,100659
848,2026-02-27 00:11:50,100740
849,2026-02-27 00:11:50,100796
850,2026-02-27 00:11:50,100796
851,2026-02-27 00:11:50,100872
852,2026-02-27 00:11:50,100927
853,2026-02-27 00:11:50,100973
854,2026-02-27 00:11:50,100978
855,2026-02-27 00:11:50,101053
856,2026-02-27 00:11:50,100903
857,2026-02-27 00:11:50,100457
858,2026-02-27 00:11:50,100149
859,2026-02-27 00:11:51,100104
860,2026-02-27 00:11:51,100085
861,2026-02-27 00:11:51,100143
862,2026-02-27 00:11:51,100215
863,2026-02-27 00:11:51,100254
864,2026-02-27 00:11:51,100234
865,2026-02-27 00:11:51,100267
866,2026-02-27 00:11:51,100276
867,2026-02-27 00:11:51,100320
868,2026-02-27 00:11:51,100410
869,2026-02-27 00:11:51,100477
870,2026-02-27 00:11:51,100481
871,2026-02-27 00:11:51,100493
872,2026-02-27 00:11:51,100592
873,2026-02-27 00:11:51,100648
874,2026-02-27 00:11:51,100635
875,2026-02-27 00:11:51,100647
876,2026-02-27 00:11:51,100700
877,2026-02-27 00:11:51,100800
878,2026-02-27 00:11:51,100813
879,2026-02-27 00:11:51,100808
880,2026-02-27 00:11:51,100826
881,2026-02-27 00:11:51,100840
882,2026-02-27 00:11:51,100762
883,2026-02-27 00:11:52,100404
884,2026-02-27 00:11:52,100053
885,2026-02-27 00:11:52,99956
886,2026-02-27 00:11:52,99992
887,2026-02-27 00:11:52,100045
888,2026-02-27 00:11:52,100066
889,2026-02-27 00:11:52,100130
890,2026-02-27 00:11:52,100109
891,2026-02-27 00:11:52,100086
892,2026-02-27 00:11:52,100106
893,2026-02-27 00:11:52,100133
894,2026-02-27 00:11:52,100146
895,2026-02-27 00:11:52,100195
896,2026-02-27 00:11:52,100255
897,2026-02-27 00:11:52,100297
898,2026-02-27 00:11:52,100342
899,2026-02-27 00:11:52,100351
900,2026-02-27 00:11:52,100372
901,2026-02-27 00:11:52,100402
902,2026-02-27 00:11:52,100428
903,2026-02-27 00:11:52,100497
904,2026-02-27 00:11:52,100499
905,2026-02-27 00:11:52,100502
906,2026-02-27 00:11:52,100559
907,2026-02-27 00:11:52,100311
908,2026-02-27 00:11:52,99899
909,2026-02-27 00:11:53,99730
910,2026-02-27 00:11:53,99699
911,2026-02-27 00:11:53,99746
912,2026-02-27 00:11:53,99856
913,2026-02-27 00:11:53,99944
914,2026-02-27 00:11:53,99938
915,2026-02-27 00:11:53,99996
916,2026-02-27 00:11:53,99990
917,2026-02-27 00:11:53,99993
918,2026-02-27 00:11:53,100098
919,2026-02-27 00:11:53,100222
920,2026-02-27 00:11:53,100284
921,2026-02-27 00:11:53,100383
922,2026-02-27 00:11:53,100468
923,2026-02-27 00:11:53,100461
924,2026-02-27 00:11:53,100473
925,2026-02-27 00:11:53,100539
926,2026-02-27 00:11:53,100611
927,2026-02-27 00:11:53,100668
928,2026-02-27 00:11:53,100745
929,2026-02-27 00:11:53,100745
930,2026-02-27 00:11:53,100744
931,2026-02-27 00:11:53,100668
932,2026-02-27 00:11:53,100271
933,2026-02-27 00:11:53,99860
934,2026-02-27 00:11:54,99724
935,2026-02-27 00:11:54,99758
936,2026-02-27 00:11:54,99817
937,2026-02-27 00:11:54,99844
938,2026-02-27 00:11:54,99886
939,2026-02-27 00:11:54,99885
940,2026-02-27 00:11:54,99871
941,2026-02-27 00:11:54,99883
942,2026-02-27 00:11:54,99937
943,2026-02-27 00:11:54,100032
944,2026-02-27 00:11:54,100098
945,2026-02-27 00:11:54,100098
946,2026-02-27 00:11:54,100152
947,2026-02-27 00:11:54,100204
948,2026-02-27 00:11:54,100232
949,2026-02-27 00:11:54,100243
950,2026-02-27 00:11:54,100254
951,2026-02-27 00:11:54,100266
952,2026-02-27 00:11:54,100329
953,2026-02-27 00:11:54,100410
954,2026-02-27 00:11:54,100422
955,2026-02-27 00:11:54,100487
956,2026-02-27 00:11:54,100503
957,2026-02-27 00:11:54,100222
958,2026-02-27 00:11:55,99821
959,2026-02-27 00:11:55,99616
960,2026-02-27 00:11:55,99642
961,2026-02-27 00:11:55,99731
962,2026-02-27 00:11:55,99796
963,2026-02-27 00:11:55,99872
964,2026-02-27 00:11:55,99816
965,2026-02-27 00:11:55,99811
966,2026-02-27 00:11:55,99838
967,2026-02-27 00:11:55,99928
968,2026-02-27 00:11:55,100032
969,2026-02-27 00:11:55,100083
970,2026-02-27 00:11:55,100121
971,2026-02-27 00:11:55,100183
972,2026-02-27 00:11:55,100195
973,2026-02-27 00:11:55,100234
974,2026-02-27 00:11:55,100283
975,2026-02-27 00:11:55,100348
976,2026-02-27 00:11:55,100427
977,2026-02-27 00:11:55,100515
978,2026-02-27 00:11:55,100595
979,2026-02-27 00:11:55,100629
980,2026-02-27 00:11:55,100336
981,2026-02-27 00:11:55,99874
982,2026-02-27 00:11:55,99675
983,2026-02-27 00:11:55,99638
984,2026-02-27 00:11:56,99631
985,2026-02-27 00:11:56,99642
986,2026-02-27 00:11:56,99679
987,2026-02-27 00:11:56,99716
988,2026-02-27 00:11:56,99725
989,2026-02-27 00:11:56,99769
990,2026-02-27 00:11:56,99816
991,2026-02-27 00:11:56,99942
992,2026-02-27 00:11:56,100007
993,2026-02-27 00:11:56,100087
994,2026-02-27 00:11:56,100157
995,2026-02-27 00:11:56,100183
996,2026-02-27 00:11:56,100251
997,2026-02-27 00:11:56,100332
998,2026-02-27 00:11:56,100385
999,2026-02-27 00:11:56,100467
1000,2026-02-27 00:11:56,100554
1001,2026-02-27 00:11:56,100601
1002,2026-02-27 00:11:56,100596
1003,2026-02-27 00:11:56,100579
1004,2026-02-27 00:11:56,100237
1005,2026-02-27 00:11:56,99789
1006,2026-02-27 00:11:56,99575
1007,2026-02-27 00:11:56,99595
1008,2026-02-27 00:11:56,99594
1009,2026-02-27 00:11:57,99585
1010,2026-02-27 00:11:57,99576
1011,2026-02-27 00:11:57,99640
1012,2026-02-27 00:11:57,99634
1013,2026-02-27 00:11:57,99661
1014,2026-02-27 00:11:57,99731
1015,2026-02-27 00:11:57,99786
1016,2026-02-27 00:11:57,99839
1017,2026-02-27 00:11:57,99913
1018,2026-02-27 00:11:57,99916
1019,2026-02-27 00:11:57,99950
1020,2026-02-27 00:11:57,99987
1021,2026-02-27 00:11:57,100023
1022,2026-02-27 00:11:57,100110
1023,2026-02-27 00:11:57,100141
1024,2026-02-27 00:11:57,100172
1025,2026-02-27 00:11:57,100237
1026,2026-02-27 00:11:57,100274
1027,2026-02-27 00:11:57,100265
1028,2026-02-27 00:11:57,100096
1029,2026-02-27 00:11:57,99673
1030,2026-02-27 00:11:57,99360
1031,2026-02-27 00:11:57,99356
1032,2026-02-27 00:11:57,99405
1033,2026-02-27 00:11:58,99440
1034,2026-02-27 00:11:58,99498
1035,2026-02-27 00:11:58,99570
1036,2026-02-27 00:11:58,99538
1037,2026-02-27 00:11:58,99561
1038,2026-02-27 00:11:58,99644
1039,2026-02-27 00:11:58,99780
1040,2026-02-27 00:11:58,99855
1041,2026-02-27 00:11:58,99931
1042,2026-02-27 00:11:58,99989
1043,2026-02-27 00:11:58,100017
1044,2026-02-27 00:11:58,100075
1045,2026-02-27 00:11:58,100130
1046,2026-02-27 00:11:58,100204
1047,2026-02-27 00:11:58,100269
1048,2026-02-27 00:11:58,100315
1049,2026-02-27 00:11:58,100331
1050,2026-02-27 00:11:58,100349
1051,2026-02-27 00:11:58,100285
1052,2026-02-27 00:11:58,99874
1053,2026-02-27 00:11:58,99524
1054,2026-02-27 00:11:58,99420
1055,2026-02-27 00:11:58,99441
1056,2026-02-27 00:11:58,99468
1057,2026-02-27 00:11:58,99483
1058,2026-02-27 00:11:58,99550
1059,2026-02-27 00:11:59,99623
1060,2026-02-27 00:11:59,99625
1061,2026-02-27 00:11:59,99584
1062,2026-02-27 00:11:59,99584
1063,2026-02-27 00:11:59,99673
1064,2026-02-27 00:11:59,99812
1065,2026-02-27 00:11:59,99813
1066,2026-02-27 00:11:59,99832
1067,2026-02-27 00:11:59,99889
1068,2026-02-27 00:11:59,99925
1069,2026-02-27 00:11:59,99994
1070,2026-02-27 00:11:59,99972
1071,2026-02-27 00:11:59,100018
1072,2026-02-27 00:11:59,100143
1073,2026-02-27 00:11:59,100160
1074,2026-02-27 00:11:59,100144
1075,2026-02-27 00:11:59,100229
1076,2026-02-27 00:11:59,100186
1077,2026-02-27 00:11:59,99829
1078,2026-02-27 00:11:59,99418
1079,2026-02-27 00:11:59,99253
1080,2026-02-27 00:11:59,99179
1081,2026-02-27 00:11:59,99225
1082,2026-02-27 00:11:59,99222
1083,2026-02-27 00:11:59,99250
1084,2026-02-27 00:12:00,99308
1085,2026-02-27 00:12:00,99312
1086,2026-02-27 00:12:00,99304
1087,2026-02-27 00:12:00,99407
1088,2026-02-27 00:12:00,99481
1089,2026-02-27 00:12:00,99530
1090,2026-02-27 00:12:00,99587
1091,2026-02-27 00:12:00,99677
1092,2026-02-27 00:12:00,99663
1093,2026-02-27 00:12:00,99727
1094,2026-02-27 00:12:00,99781
1095,2026-02-27 00:12:00,99822
1096,2026-02-27 00:12:00,99821
1097,2026-02-27 00:12:00,99910
1098,2026-02-27 00:12:00,99997
1099,2026-02-27 00:12:00,100045
1100,2026-02-27 00:12:00,100111
1101,2026-02-27 00:12:00,100008
1102,2026-02-27 00:12:00,99600
1103,2026-02-27 00:12:00,99344
1104,2026-02-27 00:12:00,99274
1105,2026-02-27 00:12:00,99340
1106,2026-02-27 00:12:00,99355
1107,2026-02-27 00:12:00,99403
1108,2026-02-27 00:12:01,99478
1109,2026-02-27 00:12:01,99487
1110,2026-02-27 00:12:01,99417
1111,2026-02-27 00:12:01,99467
1112,2026-02-27 00:12:01,99596
1113,2026-02-27 00:12:01,99684
1114,2026-02-27 00:12:01,99711
1115,2026-02-27 00:12:01,99783
1116,2026-02-27 00:12:01,99795
1117,2026-02-27 00:12:01,99865
1118,2026-02-27 00:12:01,99979
1119,2026-02-27 00:12:01,100017
1120,2026-02-27 00:12:01,100058
1121,2026-02-27 00:12:01,100122
1122,2026-02-27 00:12:01,100147
1123,2026-02-27 00:12:01,100270
1124,2026-02-27 00:12:01,100351
1125,2026-02-27 00:12:01,100165
1126,2026-02-27 00:12:01,99859
1127,2026-02-27 00:12:01,99755
1128,2026-02-27 00:12:01,99773
1129,2026-02-27 00:12:01,99838
1130,2026-02-27 00:12:01,99872
1131,2026-02-27 00:12:01,99947
1132,2026-02-27 00:12:01,100015
1133,2026-02-27 00:12:01,100009
1134,2026-02-27 00:12:02,100086
1135,2026-02-27 00:12:02,100214
1136,2026-02-27 00:12:02,100279
1137,2026-02-27 00:12:02,100335
1138,2026-02-27 00:12:02,100378
1139,2026-02-27 00:12:02,100462
1140,2026-02-27 00:12:02,100542
1141,2026-02-27 00:12:02,100645
1142,2026-02-27 00:12:02,100726
1143,2026-02-27 00:12:02,100702
1144,2026-02-27 00:12:02,100788
1145,2026-02-27 00:12:02,100899
1146,2026-02-27 00:12:02,100932
1147,2026-02-27 00:12:02,100955
1148,2026-02-27 00:12:02,100772
1149,2026-02-27 00:12:02,100414
1150,2026-02-27 00:12:02,100204
1151,2026-02-27 00:12:02,100193
1152,2026-02-27 00:12:02,100157
1153,2026-02-27 00:12:02,100230
1154,2026-02-27 00:12:02,100331
1155,2026-02-27 00:12:02,100297
1156,2026-02-27 00:12:02,100305
1157,2026-02-27 00:12:02,100354
1158,2026-02-27 00:12:02,100437
1159,2026-02-27 00:12:03,100535
1160,2026-02-27 00:12:03,100548
1161,2026-02-27 00:12:03,100594
1162,2026-02-27 00:12:03,100696
1163,2026-02-27 00:12:03,100744
1164,2026-02-27 00:12:03,100775
1165,2026-02-27 00:12:03,100810
1166,2026-02-27 00:12:03,100924
1167,2026-02-27 00:12:03,100964
1168,2026-02-27 00:12:03,100976
1169,2026-02-27 00:12:03,100890
1170,2026-02-27 00:12:03,100578
1171,2026-02-27 00:12:03,100347
1172,2026-02-27 00:12:03,100303
1173,2026-02-27 00:12:03,100303
1174,2026-02-27 00:12:03,100321
1175,2026-02-27 00:12:03,100361
1176,2026-02-27 00:12:03,100439
1177,2026-02-27 00:12:03,100480
1178,2026-02-27 00:12:03,100515
1179,2026-02-27 00:12:03,100515
1180,2026-02-27 00:12:03,100547
1181,2026-02-27 00:12:03,100644
1182,2026-02-27 00:12:03,100702
1183,2026-02-27 00:12:04,100765
1184,2026-02-27 00:12:04,100896
1185,2026-02-27 00:12:04,101075
1186,2026-02-27 00:12:04,101228
1187,2026-02-27 00:12:04,101284
1188,2026-02-27 00:12:04,101355
1189,2026-02-27 00:12:04,101423
1190,2026-02-27 00:12:04,101471
1191,2026-02-27 00:12:04,101518
1192,2026-02-27 00:12:04,101530
1193,2026-02-27 00:12:04,101518
1194,2026-02-27 00:12:04,101281
1195,2026-02-27 00:12:04,100884
1196,2026-02-27 00:12:04,100626
1197,2026-02-27 00:12:04,100612
1198,2026-02-27 00:12:04,100597
1199,2026-02-27 00:12:04,100594
1200,2026-02-27 00:12:04,100629
1201,2026-02-27 00:12:04,100673
1202,2026-02-27 00:12:04,100654
1203,2026-02-27 00:12:04,100673
1204,2026-02-27 00:12:04,100753
1205,2026-02-27 00:12:04,100781
1206,2026-02-27 00:12:04,100780
1207,2026-02-27 00:12:04,100869
1208,2026-02-27 00:12:04,100905
1209,2026-02-27 00:12:05,100969
1210,2026-02-27 00:12:05,101027
1211,2026-02-27 00:12:05,101102
1212,2026-02-27 00:12:05,101089
1213,2026-02-27 00:12:05,101208
1214,2026-02-27 00:12:05,101297
1215,2026-02-27 00:12:05,101320
1216,2026-02-27 00:12:05,101306
1217,2026-02-27 00:12:05,101010
1218,2026-02-27 00:12:05,100698
1219,2026-02-27 00:12:05,100636
1220,2026-02-27 00:12:05,100646
1221,2026-02-27 00:12:05,100685
1222,2026-02-27 00:12:05,100751
1223,2026-02-27 00:12:05,100845
1224,2026-02-27 00:12:05,100784
1225,2026-02-27 00:12:05,100798
1226,2026-02-27 00:12:05,100857
1227,2026-02-27 00:12:05,100924
1228,2026-02-27 00:12:05,101046
1229,2026-02-27 00:12:05,101125
1230,2026-02-27 00:12:05,101137
1231,2026-02-27 00:12:05,101217
1232,2026-02-27 00:12:05,101250
1233,2026-02-27 00:12:05,101330
1234,2026-02-27 00:12:06,101397
1235,2026-02-27 00:12:06,101448
1236,2026-02-27 00:12:06,101475
1237,2026-02-27 00:12:06,101574
1238,2026-02-27 00:12:06,101654
1239,2026-02-27 00:12:06,101766
1240,2026-02-27 00:12:06,101620
1241,2026-02-27 00:12:06,101207
1242,2026-02-27 00:12:06,100865
1243,2026-02-27 00:12:06,100834
1244,2026-02-27 00:12:06,100848
1245,2026-02-27 00:12:06,100824
1246,2026-02-27 00:12:06,100890
1247,2026-02-27 00:12:06,100949
1248,2026-02-27 00:12:06,100982
1249,2026-02-27 00:12:06,101016
1250,2026-02-27 00:12:06,101013
1251,2026-02-27 00:12:06,101156
1252,2026-02-27 00:12:06,101277
1253,2026-02-27 00:12:06,101362
1254,2026-02-27 00:12:06,101458
1255,2026-02-27 00:12:06,101528
1256,2026-02-27 00:12:06,101588
1257,2026-02-27 00:12:06,101624
1258,2026-02-27 00:12:07,101704
1259,2026-02-27 00:12:07,101757
1260,2026-02-27 00:12:07,101786
